305.5,154.5,137,100
306.66,149.02,135.43,98.855
306.21,148.61,135.25,98.72
306.16,148.2,135.71,99.057
306.45,147.89,135.48,98.889
306.26,147.19,134.81,98.399
306.61,146.97,134.78,98.377
306.78,146.91,134.49,98.169
306.63,146.48,134.56,98.221
306.33,146.13,134.95,98.504
306.11,145.81,135.07,98.589
306.2,145.78,135.14,98.644
306.22,145.92,134.46,98.143
306.07,145.61,133.87,97.713
306.17,145.68,133.3,97.301
306.19,146.01,132.59,96.782
305.74,146.52,133.28,97.283
304.73,146.42,133.82,97.682
304.08,146.94,133.97,97.792
303.12,147.08,135.45,98.865
302.8,147.36,135.23,98.707
302.38,147.66,136.81,99.86
302.16,148.36,136.38,99.547
301.11,148.28,137.7,100.51
300.6,148.79,137.62,100.45
299.46,148.81,138.68,101.23
298.29,148.9,140.03,102.21
297.76,149.22,140.14,102.29
296.18,149.14,141.09,102.98
293.6,148.42,144.03,105.13
293.29,148.81,144.31,105.34
292.05,148.34,146.25,106.75
290.89,148.11,146.54,106.96
291.07,148.48,147.65,107.77
290.63,148.21,148.92,108.7
290.08,147.6,149.14,108.86
290.54,147.3,150.13,109.59
291.03,146.96,149.43,109.07
291.61,145.84,149.06,108.8
292.58,145.11,149.4,109.05
293.26,144.01,149.29,108.97
295.21,144.26,148.05,108.06
296.85,144.17,146.06,106.61
298.85,144.52,145.33,106.08
301.87,144.46,143.86,105.01
304.04,145.17,143.71,104.9
305.48,145.02,143.56,104.78
307.73,144.99,143.8,104.96
309.73,144.6,142.62,104.1
312.23,143.6,140.12,102.28
313.25,143.1,139.13,101.56
314.25,142.15,138.84,101.34
315.27,140.84,138.45,101.06
315.25,140.06,139.62,101.91
315.38,140.31,139.68,101.95
315.2,139.95,140.61,102.64
315.6,139.94,140.88,102.83
316.14,140.37,140.52,102.57
316.56,141.18,139.43,101.77
317.2,141.71,139.14,101.56
318.13,142.13,139.5,101.83
317.75,142.91,139.3,101.68
317.38,143.16,138.73,101.26
315.68,143.99,138.17,100.85
313.15,144.2,139.13,101.55
311.02,145.22,139.57,101.88
307.89,145.81,140.73,102.72
305,146.65,141.86,103.55
300.37,147.46,143.96,105.08
295.93,148.15,145.88,106.48
292.41,148.31,147.31,107.52
288.09,149.12,148.73,108.56
284.6,150.28,150.93,110.17
281.25,151.89,151.6,110.66
279.83,152.62,152.08,111.01
280.56,152.68,153.28,111.88
279.68,153.6,154.55,112.81
282.4,152.87,155.04,113.17
283.37,151.45,156.31,114.09
283.28,153.22,155.24,113.31
285.29,153.24,153.93,112.36
286.32,152.32,152.51,111.32
288.09,152.18,153.06,111.72
290.01,150.56,154.06,112.45
290.92,148.59,153.43,111.99
291.74,148.43,153.54,112.07
293.14,147.44,153.47,112.02
295.03,145.93,153.38,111.96
297.63,143.62,151.51,110.59
300.51,141.78,150.45,109.82
303.38,140.79,148.24,108.2
306.79,140.85,144.26,105.3
308.35,139.96,141.77,103.48
310.81,140.07,141.43,103.23
310.97,143.04,140.02,102.21
312.42,143.37,139.55,101.86
311.78,144.01,139.31,101.69
313.36,144.36,137.07,100.05
314.92,144.65,135.39,98.822
315.48,144.52,135.05,98.579
315.11,143.2,136.26,99.462
313.18,142.63,137.74,100.54
312.19,141.35,138.75,101.27
310.8,139.87,140.25,102.38
310.08,138.93,142.24,103.82
308.81,137.94,144.53,105.5
308.35,137.72,146.19,106.71
307.3,137.32,147.93,107.98
306.46,137.45,148.7,108.54
306.78,138.42,149.8,109.34
304.86,139.64,150.39,109.77
304.03,139.84,149.59,109.19
305.02,139.93,150.13,109.58
305.59,140.23,149.57,109.17
305.33,140.83,149.35,109.01
305.81,140.39,149.08,108.82
306.41,140.3,147.47,107.64
306.54,140.19,145.64,106.31
307.49,140.28,145.26,106.03
307.92,139.8,144.78,105.68
307.6,140.47,144.2,105.25
308.39,140.87,143.97,105.09
308.7,140.74,144.72,105.64
308.39,140.39,144.34,105.36
308.3,140.73,144.98,105.82
308.88,141.11,144.96,105.81
308.79,141.05,144.99,105.83
309.03,140.49,145.58,106.26
309.37,140.54,144.82,105.71
308.64,140.47,144.66,105.59
308.61,140.22,144.5,105.48
308.38,140.29,144.82,105.71
307.86,139.89,144.77,105.67
307.74,139.51,144.76,105.66
307.68,139.22,146.14,106.67
306.98,139.09,146.2,106.71
305.9,138.79,147.7,107.81
304.06,138.23,149.58,109.18
302.63,137.86,149.49,109.12
300.17,137.73,150.77,110.05
299.63,138.02,152.44,111.27
297.93,138.25,153.14,111.78
296.93,137.96,154.04,112.43
294.68,136.65,154.5,112.77
294.76,137.95,155.78,113.71
292.65,136.71,156.67,114.36
292.49,137.16,157.86,115.23
291.28,136.62,158.35,115.59
289.72,135.13,158.48,115.68
289.55,135.99,158.7,115.84
289.42,136.03,158.96,116.03
289.45,135.28,158.38,115.61
288.7,135.19,158.44,115.65
288.88,135.66,159.43,116.37
289.07,135.33,158.99,116.05
290.11,136.15,159.17,116.18
291.53,136.78,157.58,115.02
293.18,137.59,157.03,114.62
293.92,136.79,156.3,114.09
294.49,137.51,155.48,113.49
295.77,137.67,154.96,113.11
295.95,137.47,153.24,111.86
297.06,137.91,153.29,111.89
297.85,138.81,152.33,111.19
298.94,139.05,151.65,110.7
299.32,139.26,151.21,110.37
299.79,139.5,150.58,109.91
299.4,139.42,150.61,109.94
299.69,139.51,151.01,110.23
299.98,139.52,150.31,109.72
299.84,139.52,151,110.22
300.07,139.55,150.51,109.86
299.8,138.87,150.68,109.98
300.74,137.78,150.53,109.88
301.09,137.36,150.73,110.02
301.66,136.64,151.27,110.42
302.98,135.6,151.19,110.36
304.03,135.26,149.99,109.48
304.78,134.34,148.73,108.56
306.93,135.21,147.02,107.31
308.32,136.12,144.85,105.73
309.17,136.63,143.12,104.47
308.92,136.27,141.58,103.35
310.9,139.48,139.01,101.47
312.04,141.24,137.86,100.63
312.57,142.48,136.49,99.624
314.07,144.09,135.35,98.798
318.08,145.01,133.94,97.767
323.46,145.83,133.63,97.543
324.86,147.7,134.43,98.127
320.41,148.36,133.91,97.744
317.86,148.25,133.71,97.6
315.64,147.98,134.18,97.943
313.68,148.5,136.03,99.292
310.46,147.65,136.51,99.64
308.46,147.27,137.24,100.18
307.08,147.07,138.06,100.77
305.45,146.1,140.86,102.82
304.57,145.52,141.73,103.45
303.47,145.21,143.54,104.78
302.52,145,144.72,105.63
301.74,144.43,145.86,106.47
302.08,144.24,145.59,106.27
302.63,144.54,145.14,105.94
301.47,142.31,146.92,107.24
301.97,142.04,147.24,107.47
303.25,141.64,147.68,107.8
304.53,141.45,148.11,108.11
305.74,141.28,147.16,107.42
306.88,141.2,146.55,106.97
307.36,141.1,146,106.57
308.19,141.29,145.82,106.44
309.12,141.37,144.03,105.13
309.95,141.5,143.3,104.6
310.56,141.95,142.03,103.67
311.13,142.11,140.92,102.86
312.06,142.92,139.6,101.9
312.87,143.46,138.64,101.19
312.51,143.95,139.08,101.52
311.32,144.12,140.24,102.36
310.32,143.99,142.08,103.71
308.98,143.15,143.35,104.63
308.41,143.41,145.23,106.01
306.91,143.09,146.23,106.74
305.92,143.15,147.06,107.35
305.69,144.43,147.21,107.45
303.99,144.69,148.33,108.27
302.85,144.88,148.27,108.23
301.44,144.98,148.94,108.72
299.06,145.06,150,109.49
297.43,145.31,150.9,110.14
296.42,145.49,151.62,110.67
296.15,145.12,152.61,111.39
295.26,145.43,153.96,112.38
293.47,144.23,154.02,112.42
293.15,144.79,153.99,112.4
292.15,144.99,154.35,112.66
291.53,145.43,154.98,113.12
291.03,144.98,154.86,113.03
290.44,145.37,154.89,113.06
290.28,146.1,153.56,112.09
290.27,146.64,153.59,112.11
290.29,146.36,153.52,112.05
290.52,145.75,153.54,112.07
290.63,145.61,153.34,111.93
289.97,145.69,153.55,112.08
289.57,145.89,154.17,112.54
289.22,145.59,154.41,112.71
289.38,146.62,155.9,113.8
288.38,145.55,156.64,114.34
287.76,146.43,159.22,116.22
286.82,145.65,158.39,115.61
287.58,145.11,158.25,115.51
288.31,145.04,157.05,114.63
291.97,145.16,154.69,112.91
294.84,145.15,153.66,112.16
299.04,143.45,151.3,110.44
302.97,142.72,150.33,109.73
304.78,141.46,149.01,108.77
303.28,139.75,149.47,109.1
303.05,139.76,149.36,109.02
304.56,139.43,148.69,108.53
305.14,139.8,147.82,107.9
305.72,139.32,146.88,107.21
306.92,139.93,145.54,106.24
308.33,140.72,144.46,105.44
308.71,141.11,143.44,104.7
309.17,141.25,142.93,104.33
309.01,141.5,143.43,104.69
309.65,141.1,143.2,104.52
309.15,140.44,143.06,104.42
309.32,140.71,142.71,104.17
309.56,141.26,142.71,104.17
309.27,141.26,142.91,104.31
308.49,140.81,144.53,105.49
307.89,140.7,145,105.84
307.8,140.23,144.89,105.76
307.53,140.39,144.43,105.42
307.31,139.96,144.21,105.26
306.68,139.79,143.66,104.86
306.75,139.94,143.44,104.7
307.04,140.48,143.61,104.83
308.32,139.83,142.08,103.71
307.77,139.85,142.08,103.71
305.54,140.45,143.62,104.83
304.77,140.5,144.34,105.36
304.78,139.9,144.81,105.7
305.18,138.38,143.75,104.93
306.14,137.38,142.79,104.23
306.58,140.6,142.04,103.68
307,140.57,142.58,104.07
308.18,141.19,142.11,103.73
308.91,140.89,142.37,103.92
307.97,141.23,143.53,104.76
307.95,140.93,143.15,104.49
307.42,141.37,143.62,104.83
306.52,140.33,144.36,105.37
306.5,139.91,144.39,105.4
306.7,139.27,144.4,105.4
307.64,139.6,144.11,105.19
307.54,140.67,143.94,105.07
307.99,141.33,144.41,105.41
308.5,141.5,144.39,105.39
308.59,141.18,144.58,105.54
308.75,140.72,144.11,105.19
309.19,141.31,142.3,103.87
310.05,141.76,143.22,104.54
309.35,141.06,142.79,104.23
309.34,141.97,142.53,104.04
309.2,142.51,142.42,103.95
309.52,142.64,142.12,103.74
309.8,142.03,141.26,103.11
310.52,139.59,141.01,102.93
311.56,138.37,140.24,102.37
313.89,140.48,138.92,101.4
314.55,143.03,136.85,99.893
314.36,144.85,136.62,99.726
313.75,146.18,136.53,99.658
313.99,146.72,136.36,99.532
314.16,148.1,135.77,99.106
314.05,149.2,134.87,98.443
314.82,149.37,135,98.542
314.78,149.69,134.33,98.05
314.46,150.73,134.26,98.002
318.73,148.08,133.87,97.715
319.31,148.57,133.14,97.185
319.5,150.21,133.21,97.231
316.45,150.41,135.04,98.573
314.39,150.51,135.52,98.922
312.43,150,135.72,99.063
312.61,147.94,134.86,98.44
312.5,146.52,136.07,99.32
311.97,146.35,136.61,99.714
311.05,145.9,138.45,101.06
310.59,145.22,140.54,102.58
309.5,146.3,140.09,102.25
309.54,148.16,139.64,101.93
310.5,147.61,139.36,101.72
310.29,148.22,139.9,102.12
312.07,149.63,139.21,101.62
312.01,149.06,139.74,102
312.31,149.08,140.01,102.2
313.24,149.18,140,102.19
313.99,149.57,139.35,101.72
314.68,149.33,138.3,100.95
316.63,149.27,138.2,100.87
317.74,148.59,138.35,100.99
318.85,149.01,138.31,100.96
315.14,149.28,138.66,101.21
317.94,149.56,138.34,100.98
317.24,150.32,136.95,99.964
317.05,149.75,137.4,100.29
315.74,148.59,138.5,101.1
316.37,147.67,138.58,101.15
317.52,147.01,137.18,100.13
317.44,145.99,135.31,98.763
317.35,147.51,133.58,97.5
317.1,147.24,133.46,97.419
316.6,146.54,132.87,96.986
317.05,146.79,132.73,96.881
317,148.18,132.36,96.613
317.09,147.25,132.1,96.425
317.24,147.22,132.92,97.018
316.67,147.67,131.51,95.99
317.76,147.79,131.66,96.1
317.69,148.07,130.86,95.517
318.54,149.23,131.86,96.247
318.29,147.81,132.98,97.063
318.36,147.41,133.46,97.416
318.17,147.65,132.81,96.942
318.43,148.07,132.35,96.609
318.91,147.7,131.4,95.914
319.51,148.42,131.38,95.901
319.69,148.05,131,95.619
319.69,147.87,130.33,95.132
319.56,148.19,129.83,94.765
320.24,147.99,129.12,94.245
320.23,147.93,128.97,94.141
320.08,148.93,129.26,94.35
319.85,148.38,129.62,94.61
319.69,148.81,128.67,93.919
319.77,148.32,128.11,93.511
319.61,149.32,128.52,93.809
319.88,149.71,128.59,93.86
319.78,149.28,128.95,94.127
319.85,149.42,129.32,94.396
319.63,149.49,128.69,93.936
320.3,149.98,128.2,93.574
320.56,149.96,128.53,93.814
320.33,149.3,128.75,93.978
320.62,150.08,127.77,93.259
320.29,149.52,128.08,93.487
319.94,148.76,127.98,93.418
319.83,150.52,127.29,92.911
319.01,150.14,127.95,93.391
319.23,150.74,128.24,93.609
319.19,150.94,128.47,93.77
318.53,150.36,128.53,93.82
318.5,150.45,127.83,93.303
318.29,150.95,127.69,93.207
318.01,151.13,126.73,92.501
317.9,151.96,126.64,92.437
318.16,151.39,126.42,92.28
317.53,151.76,125.85,91.859
317.7,152.05,126.81,92.564
316.4,151.02,128.13,93.526
316.25,150.02,129.06,94.202
316.74,145.69,131.13,95.719
317.3,142.72,132.73,96.886
315.29,144.2,134.17,97.937
315.1,145.07,134.96,98.512
314.63,145.13,135.61,98.986
312.76,144.71,137.2,100.15
312.2,144.79,137.36,100.26
312.09,144.91,138.44,101.05
311.94,144.45,139.7,101.97
310.96,143.21,141.78,103.49
309.81,142.31,143.36,104.64
309.75,142,143.66,104.86
309.22,141.48,143.94,105.07
309.15,141.45,144.79,105.68
308.54,140.55,145.36,106.1
308.63,140.59,144.92,105.78
308.91,140.85,145.43,106.16
308.67,140.49,145.68,106.33
308.27,140.01,145.29,106.05
308.56,140.25,144.78,105.68
308.73,140.2,144.81,105.7
308.65,140.08,145,105.84
309.24,140.88,144.54,105.5
309.52,141.01,143.89,105.03
309.56,140.82,143.57,104.8
309.55,140.89,143.42,104.69
310.35,141.4,143.04,104.41
309.77,141.28,143,104.38
309.61,141.58,142.83,104.26
310.5,142.16,142.27,103.85
309.05,140.81,143.61,104.82
308.19,139.71,144.54,105.5
309.11,140.51,145.02,105.86
309.15,140.45,145.12,105.93
308.79,139.66,145.52,106.22
309.41,140.57,144.24,105.29
309.03,140.13,144.32,105.34
309.32,140.67,144.06,105.15
309.9,140.97,143.34,104.63
310.18,141.44,143.27,104.58
309.87,141.48,143.02,104.4
309.85,141.63,141.38,103.2
311.12,142.77,139.5,101.82
313.41,144.64,137.05,100.03
313.24,145.41,136.18,99.398
313.81,145.87,135.28,98.747
315.34,146.94,132.78,96.918
315.83,148.79,130.23,95.06
315.76,149.88,128.09,93.496
315.24,152.2,126.9,92.625
316.56,153.37,124.71,91.028
317.54,159.32,123.58,90.201
318.01,161.83,123.15,89.891
319.12,159.94,122.17,89.175
320.5,154.12,120,87.589
322.43,147.35,118.17,86.256
323.48,149.44,117.1,85.474
322.69,147.71,115.91,84.608
323.75,148.08,115.18,84.076
326.1,148.05,114.49,83.567
320.44,171.07,114.78,83.78
320.99,175.42,114.79,83.786
322.51,171.23,115.16,84.062
324.24,171.45,115.02,83.955
323.9,171.42,115.26,84.132
323.9,172.02,115.17,84.069
326.11,172.36,114.96,83.913
328.18,175.65,114.67,83.7
329.21,174.05,114.6,83.651
328.37,175.88,114.36,83.474
332.31,176.55,113.81,83.072
332.47,178.15,114.07,83.259
334.7,177.44,113.91,83.149
333.4,177.1,113.17,82.606
332.63,178.34,113.3,82.702
335.68,178.8,114.3,83.434
333.36,177.48,113.64,82.948
333.39,178.07,113.11,82.563
332.11,178.13,113.43,82.794
332.35,177.96,113.4,82.777
329.95,177.34,114.16,83.327
328.71,176.67,114.73,83.745
329.54,175.97,114.88,83.858
328.5,175.21,114.86,83.837
322.37,175.6,115.22,84.102
324.02,172.32,115.56,84.347
323.41,170.65,115.33,84.184
324.48,169.39,115.24,84.117
324.96,167.3,115.64,84.41
323.92,169.93,115.82,84.54
329.93,150.75,116.92,85.345
330.75,150.2,116.67,85.16
330.12,149.9,116.63,85.129
329.34,149.63,115.85,84.564
328.44,149.24,115.92,84.615
328.82,149.27,115.95,84.637
330.78,151.08,115.99,84.665
330.4,149.01,115.83,84.55
330.87,146.54,115.87,84.576
322.08,164.8,117.63,85.865
321.96,163.91,118.88,86.771
323.41,161.73,119.68,87.354
324.48,160.36,120.2,87.739
323.25,158.82,119.64,87.325
323.44,157,120.53,87.976
319.29,156.2,121.34,88.569
318.22,155.27,121.84,88.934
318.91,154.35,121.79,88.895
319.98,154.35,120.84,88.205
321.71,157.12,119.81,87.453
321.43,159.11,118.88,86.775
322.38,160.55,117.82,86.002
322.94,160.61,116.56,85.08
323.8,160.08,115.55,84.344
323.95,159.33,115.56,84.352
323.94,159.97,115.57,84.357
324.48,159.49,114.72,83.734
325.31,158.96,114.36,83.476
326.7,158.3,114.14,83.316
326.51,157.74,113.74,83.024
327.15,157.8,113.41,82.778
326.19,158.76,112.57,82.169
326.39,158.74,112.09,81.815
326.62,159.38,112.35,82.007
326.66,158.24,111.45,81.35
326.86,159.49,110.99,81.013
327.1,160.1,111.46,81.36
326.62,158.9,111.79,81.597
326.62,158.73,111.9,81.68
326.82,158.98,111.8,81.607
326.81,158.83,111.53,81.408
327.35,159.46,111.41,81.324
327.22,159,111.25,81.206
328.1,158.85,110.31,80.519
328.07,160.13,109.89,80.212
328.38,160.1,109.84,80.172
328.25,160.25,109.62,80.017
328.25,160.57,109.69,80.067
328.71,161.2,109.38,79.839
328.53,161.7,109.98,80.277
328.62,161.99,110.48,80.645
324.56,175.45,111.19,81.158
327.29,176.42,111.16,81.138
329.39,180.58,110.96,80.996
323.45,176.37,111.24,81.2
320,172.73,110.78,80.863
321.06,167.05,110.82,80.887
320.83,169.02,110.6,80.73
322.69,171.25,110.53,80.68
322.14,170.03,110.41,80.591
321.36,168.87,110.86,80.917
320.98,167.46,110.02,80.309
321.56,166.13,110.29,80.507
321.46,163.02,110.33,80.534
321.76,162.67,110.39,80.579
321.72,161.84,110.89,80.94
321.56,161.65,111.97,81.732
321.46,161.78,112.88,82.397
321.4,162.02,113.57,82.899
321.66,162.14,113.62,82.931
321.39,161.69,113.74,83.019
322.21,162.25,114.6,83.647
321.31,161.45,115.14,84.042
320.55,160.31,115.97,84.65
321.01,160.58,116.4,84.961
320.97,160.46,117.24,85.573
320.57,159.22,117.75,85.952
320.12,158.64,118.05,86.17
319.76,157.95,118.43,86.443
319.38,158.01,119.25,87.044
319.48,157.4,119.07,86.916
319.14,157.33,119.16,86.981
318.61,158.59,118.27,86.328
318.13,160.19,117.01,85.409
318.68,162.99,115.88,84.583
318.9,163.67,114.37,83.485
319.31,165.76,113.15,82.592
319.79,166.78,111.05,81.059
319.84,168.65,110.47,80.634
319.87,168.33,109.65,80.04
319.56,168.31,108.78,79.405
320.14,170.06,109.35,79.82
319.96,169.48,108.89,79.48
319.9,170.85,108.28,79.037
319.8,171.18,107.83,78.708
320.18,170.53,107.89,78.755
319.87,170.26,107.56,78.512
320.31,170.7,106.17,77.493
319.81,172.17,104.96,76.615
319.86,172.88,104.43,76.225
319.28,173.31,103.32,75.413
319.08,174.27,103.06,75.226
319.07,174.09,102.92,75.125
319.01,174.86,103.28,75.386
319.1,173.27,103.45,75.509
318.93,173.69,103.52,75.564
320.69,175.41,104.05,75.947
319.9,174.49,104.89,76.56
318.86,174.62,105.32,76.873
318.35,174.68,105.49,76.999
317.38,173.51,105.43,76.954
318.21,173.6,105.82,77.238
319.62,173.26,106.49,77.729
319.72,172.39,106.72,77.896
321.84,172.14,107.48,78.452
321.98,171.85,108.33,79.075
321.91,170.67,109.35,79.818
322.61,169.57,110.83,80.901
324.33,168.57,112.04,81.78
326.13,168.12,113.26,82.67
329.23,167.47,114.98,83.93
330.41,166.11,116.49,85.03
333.55,165.38,118.06,86.177
336.72,163.9,120.34,87.843
337.38,161.34,121.79,88.894
342.3,160.28,120.58,88.018
345.18,159.06,119.68,87.361
347.14,159.28,118.46,86.465
347.4,154.86,117.47,85.742
350.66,150.16,115.85,84.559
348.54,154.06,114.72,83.738
336.4,164.06,116.23,84.839
332.28,163.39,117.7,85.915
331.99,161.54,119.4,87.15
332.92,161.23,119.6,87.3
329.84,162.92,119.45,87.191
325.71,163.26,119.94,87.546
322.02,164,120.66,88.07
320.87,163.24,120.41,87.894
292.28,173.47,120.19,87.728
289.27,174.16,119.99,87.583
288.31,175.74,120.05,87.625
306.12,170.75,120.33,87.833
306.36,172.48,120.8,88.177
303.82,173.15,121.2,88.469
296.71,171.19,120.79,88.165
292.05,166.04,119.95,87.554
296.35,170.56,120.55,87.991
299.46,176.38,121.84,88.931
293.57,173.39,123.23,89.949
292.08,170.42,123.01,89.786
291.51,169.02,123.16,89.898
288.55,172.12,123.38,90.061
281.4,174.03,123.5,90.146
281.31,176.35,123.72,90.308
283.21,174.28,124.82,91.109
279.49,172.21,124.95,91.206
287.96,181.16,126.25,92.156
278.08,174.38,125.95,91.936
280.12,173.32,126.16,92.087
279.19,173,126.01,91.975
279.61,175.34,126.53,92.357
280.27,172.71,127.17,92.828
283.22,172.87,127.25,92.886
282.29,174.84,128.06,93.477
281.2,174.86,128.49,93.79
281.41,174.29,128.67,93.923
281.04,174.39,128.76,93.989
282.22,173.89,128.71,93.949
281.07,174.48,128.74,93.97
281.7,174.28,129.44,94.479
281.58,174.13,130.27,95.086
282.77,172.71,130.29,95.102
284.51,173.91,130.88,95.534
285.85,172.13,131.1,95.692
288.26,167.22,131.05,95.658
287.86,168.39,130.22,95.05
287.86,167.24,129.63,94.62
289.08,166.44,127.98,93.418
290.34,165.3,127.38,92.977
291.08,165.12,126.36,92.232
291.35,165.8,126.34,92.219
290.81,169.05,125.46,91.573
290.69,168.19,124.47,90.851
290.13,169.26,123.58,90.202
290.72,169.86,123.58,90.202
289.83,170.43,123.6,90.219
290.07,170.44,123.44,90.1
288.4,170.57,123.64,90.247
286.6,172.06,123.61,90.226
285.96,172.64,123.06,89.828
285.14,172.07,123.2,89.924
284.24,172.83,122.8,89.637
283.98,172.54,122.14,89.154
282.97,173.19,121.84,88.936
282.88,172.83,121.75,88.869
282.16,173.69,121.79,88.897
281.3,175.18,121.51,88.696
280.84,175.72,120.92,88.264
280.94,174.89,121.02,88.335
281.02,174.48,120.84,88.207
280.77,175.14,120.71,88.111
280.65,174.91,120.67,88.08
280.92,174.99,120.62,88.045
281.05,174.88,120.36,87.854
280.7,174.49,120.44,87.914
280.86,174.25,120.45,87.917
281.18,174.28,120.41,87.891
281.43,173.78,120.37,87.862
281.85,173.58,119.87,87.498
282.37,173.33,119.56,87.267
283.44,173.33,119.76,87.414
283.59,173.33,119.99,87.583
284.44,173.06,120.02,87.608
285.01,173.54,120.05,87.629
284.99,173.05,120.03,87.614
285.48,172.89,119.98,87.575
286.04,172.74,119.55,87.266
286.43,173.19,119.31,87.09
286.39,172.92,119.08,86.921
287.03,173.07,118.91,86.793
286.67,172.69,118.88,86.774
287.1,173.43,118.59,86.562
286.75,173.04,118.43,86.446
286.51,173.59,117.05,85.44
286.44,174.19,115.23,84.11
285.93,174.9,113.72,83.009
285.63,174.62,112.44,82.073
285.13,174.95,109.35,79.815
284.99,176.43,107.25,78.287
284.99,176.99,105.42,76.946
285.84,179.12,103.86,75.809
286.85,181.66,102.3,74.674
289.57,185.9,101.23,73.892
290.65,188.43,101.11,73.8
291.47,191,101.16,73.843
292.59,194.12,101.01,73.733
294.78,196.21,101,73.722
298.15,200.01,100.73,73.527
299.85,202.64,101.32,73.955
302.03,206.43,101.67,74.213
303.07,209.4,101.72,74.248
303.73,211.26,102.15,74.56
305.48,213.13,101.86,74.348
307.02,213.26,102.59,74.881
308.62,212.97,103.08,75.238
310.29,213.4,102.98,75.168
312.02,212.54,102.75,74.998
313.74,212.09,102.87,75.088
314.92,212.12,103.53,75.569
315.65,211.28,104.28,76.117
316.4,211.81,104.89,76.565
317.54,211.42,105.28,76.847
317.82,211.42,105.85,77.264
317.86,210.83,105.82,77.241
317.86,210.32,106.23,77.543
317.24,208.89,106.56,77.783
316.91,208.37,106.35,77.625
315.57,207.52,106.07,77.427
314.61,207.2,105.22,76.802
313.17,207.24,104.94,76.598
311.83,207.14,104.4,76.204
309.95,207.18,103.86,75.812
308.27,207.72,102.96,75.157
306.9,208.52,102.25,74.637
305.63,208.87,101.81,74.312
304.85,209.61,101.33,73.965
303.42,209.82,101.23,73.893
302.55,210.42,100.84,73.604
301.27,210.52,101,73.725
300.4,210.38,100.77,73.557
300.82,210.84,100.84,73.603
300.74,210.65,100.77,73.557
300.99,210.31,101.1,73.798
301.34,209.7,101.5,74.087
302.44,209.27,102.74,74.989
303.55,208.33,103.85,75.802
304.65,207.21,105.59,77.07
305.98,206.05,106.76,77.926
307.85,203.96,108.37,79.105
309.49,202.39,110.95,80.983
310.46,201.06,113.02,82.496
311.93,199.25,114.5,83.573
312.92,197.32,115.99,84.665
314.09,195.74,117.56,85.808
315.31,195.08,118.55,86.532
315.81,194,119.84,87.473
316,192.97,120.57,88.009
317.04,193.23,120.84,88.208
317.4,192.25,121.16,88.439
317.68,191.9,121.8,88.902
318.13,191.84,121.56,88.732
318.18,191.98,121.63,88.784
317.79,192.1,120.96,88.289
316.25,191.84,120.37,87.862
314.72,191.6,119.32,87.093
313.05,190.48,119.05,86.895
311.56,190.16,118.11,86.212
308.73,188.17,117.68,85.896
305.69,186.36,117,85.405
303.9,185.15,116.63,85.128
300.85,183.33,115.86,84.568
299.45,182.82,115.21,84.096
297.44,182.21,114.6,83.653
294.92,181.39,114.27,83.412
293.77,181.4,114.57,83.626
291.99,181.47,114.96,83.914
290.69,181.46,116.27,84.872
290.62,182.09,117.39,85.69
290,182.73,119.04,86.89
290.57,182.83,120.36,87.854
290.9,182.92,121.12,88.412
291.5,182.46,122.66,89.536
292.33,182.49,123.94,90.468
292.89,181.96,125.36,91.501
293.87,181.21,125.98,91.959
294.29,180.75,126.78,92.544
294.95,180.54,128.03,93.449
295.21,179.74,127.86,93.33
295.21,179.57,128.83,94.04
295.53,179.44,129.34,94.406
295.58,179.13,129.4,94.453
295.73,179.3,129.46,94.493
295.43,179.86,129.89,94.812
295.09,179.99,129.88,94.806
295.53,179.93,129.49,94.517
296.13,180.86,128.62,93.88
296.66,179.21,127.55,93.106
298.31,180.75,129.08,94.219
299.14,180.48,129.87,94.793
300.1,179.98,130.35,95.149
300.66,179.31,128.96,94.132
300.91,179.2,128.5,93.796
301,178.89,128.91,94.096
301.02,178.17,129.5,94.523
299.17,176.34,129.58,94.583
295.95,174.38,129.24,94.336
294.43,172.53,128.39,93.713
292.85,170.16,128.38,93.705
290.73,167.79,129.02,94.178
288.94,165.85,129.33,94.399
288.64,164.99,130.49,95.25
287.34,164.16,130.69,95.391
286.44,163.42,129.77,94.722
285.06,164.17,130.22,95.05
282.97,166.45,130.28,95.097
280.79,168.9,130.55,95.29
280.25,171.88,131.18,95.751
279.68,173.73,131.09,95.689
279.57,176.79,132.27,96.547
278.87,178.89,133.33,97.321
279.5,180.69,133.52,97.457
280.05,182.83,134.24,97.984
279.49,183.83,134.81,98.398
280.01,185.93,132.72,96.874
280.37,187.3,133.27,97.279
281,189.76,131.86,96.249
281.6,192.78,131.83,96.224
281.91,193.81,131.35,95.877
282.55,196.35,130.8,95.476
282.83,197.46,130,94.892
283.21,200.11,129.06,94.204
283.8,201.26,127.13,92.795
284.63,202.57,125.66,91.726
285.95,204.07,124.4,90.801
287.68,204.46,123.09,89.845
289.65,205.23,121.63,88.783
292.51,205.54,119.65,87.335
295,205.51,117.84,86.017
299.64,205.52,116.3,84.893
303.13,205.58,114.35,83.47
306.54,205.65,113.99,83.203
309.85,205.36,113.21,82.634
312.96,204.85,113.1,82.556
315.6,205.44,111.62,81.478
317.07,206.14,111.26,81.213
317.96,205.79,110.12,80.383
317.61,205.6,108.29,79.044
308.28,205.3,107.64,78.571
306.51,205.41,106.4,77.667
304.59,204.86,104.74,76.449
316.24,203.62,103.64,75.65
313.21,201.36,101.42,74.032
308.24,202.73,100.49,73.35
295.88,204.05,99.922,72.936
309.66,201.36,98.022,71.549
305.76,202.25,96.35,70.329
304.92,201.58,94.634,69.076
298.73,202.15,93.66,68.365
300.02,199.82,93.214,68.04
296.64,200.64,92.599,67.59
296.85,200.21,92.812,67.746
295.78,200.28,94.471,68.957
292.72,199.15,96.221,70.234
283.88,197.59,96.488,70.429
278.29,197.22,97.745,71.347
275.27,198.43,98.833,72.141
270.79,198.16,100.07,73.043
264.71,196.87,101.14,73.828
255.37,196.55,102.26,74.639
249.95,195.29,103.73,75.719
244.01,194.14,104.51,76.283
239.34,192.95,105.97,77.347
235.29,191.84,107,78.1
232.36,190.41,107.77,78.662
230.98,188.81,109.08,79.619
230.8,187.86,108.92,79.505
231.24,187.17,108.44,79.152
231.17,186.9,108.04,78.86
229.47,187.17,108.26,79.024
228.18,187.43,109.42,79.867
226.76,187.22,110.79,80.867
226.81,188.9,112.06,81.795
228.7,190.05,112.92,82.424
233.86,190.85,112.81,82.343
239.69,191.4,113.73,83.012
247.99,191.4,114.4,83.504
254.94,192.31,115.35,84.194
262.41,192.87,115.42,84.252
273.92,193.24,115.68,84.44
282.16,192.93,114.34,83.463
290.47,192.45,114.33,83.454
300.46,187.07,114.26,83.403
309.09,186.77,113.43,82.796
320.91,182.94,113.5,82.843
327.37,182.68,112.13,81.844
333.68,181.63,111.7,81.536
337.93,180.85,110.52,80.675
341.44,180.08,109.59,79.993
343.89,177.8,109.82,80.158
345.97,176.72,109.31,79.786
346.8,176.34,108.43,79.143
347.43,177.31,107.96,78.803
346.82,178.07,107.15,78.211
344.92,177.44,106.45,77.698
340.85,178.67,106.5,77.737
336.72,178.74,107.08,78.16
329.85,180.36,107.88,78.741
320.06,183.6,106.59,77.805
302.88,189.66,107.54,78.498
294.09,189.73,107.42,78.406
283.55,195.11,108.08,78.887
268.45,199.3,108.48,79.185
256.53,201.25,107.68,78.602
236.17,203.75,107.84,78.714
226.68,205.16,107.13,78.195
215.44,205.18,107.49,78.461
206.2,205.42,108.1,78.909
200.42,205.03,108.73,79.365
196.27,204.65,109.01,79.567
196.33,204.77,109.43,79.877
200.05,203.75,109.41,79.86
208.95,203.1,109.26,79.755
222.23,201.78,109.03,79.585
250.05,199.29,106.84,77.984
260.61,198.07,106.46,77.708
278.56,195.35,105.54,77.035
299.19,189.63,106.8,77.958
316.07,185.11,108.04,78.862
347.01,175,108.57,79.245
362.44,167.36,108.93,79.514
377.14,161.36,109.24,79.738
393.16,155.59,109.05,79.6
402.97,152.07,109.04,79.59
411.29,147.63,108.72,79.36
418.85,145.91,108.02,78.849
420.76,145.04,108.3,79.053
420.78,145.05,108.2,78.976
418.16,145.6,107.92,78.773
403.74,152.15,108.72,79.357
396.84,155.85,109.4,79.852
377.4,161.73,109.39,79.849
359.67,168.1,108.97,79.541
345.83,171.74,109.23,79.73
302.92,178.18,109.01,79.57
289.25,184.85,108.43,79.144
276.2,188.63,108.18,78.966
256.66,189.73,108.27,79.026
232.64,189.76,108.31,79.062
220.08,190.01,107.76,78.655
206.12,190.58,108.25,79.016
203.79,190.5,109.16,79.679
204.33,189.18,110.24,80.465
208.75,188.23,110.99,81.015
219.12,188.25,111.38,81.3
242.2,186.8,111.62,81.472
257.63,188.45,112.19,81.89
275.53,187.53,112.4,82.042
293.71,181.68,112.19,81.891
314.23,179.76,111.27,81.221
335.5,173.61,110.37,80.561
356.49,168.38,110.53,80.676
368.14,164.77,110.08,80.35
378.87,161.07,110.11,80.372
385.85,159.28,110.3,80.511
388.81,155.06,109.45,79.889
389.63,153.82,108.67,79.322
387.67,153.68,109.14,79.663
381.02,154.15,109,79.56
377.03,155.39,108.94,79.52
368.35,158.18,108.97,79.543
358.05,163.41,109.15,79.668
356.26,166.17,108.25,79.014
353.94,165.97,106.69,77.877
339.04,150.02,106.36,77.633
335.5,148.9,104.93,76.589
333.2,151.8,103.9,75.837
329.81,156.45,103.5,75.546
325.45,163.37,102.22,74.611
322.78,169.62,101.38,74.001
319.82,174.66,101.1,73.796
317.03,177.28,100.49,73.353
316.22,179.49,99.706,72.778
316.91,181.81,99.516,72.639
317.2,181.56,98.909,72.196
317.98,183.83,98.451,71.862
317.7,184.04,97.661,71.286
318.78,183.83,96.978,70.787
317.94,183.08,96.25,70.256
316.62,182.02,95.342,69.593
312.87,181.06,95.258,69.531
307.02,182.96,95.456,69.676
300.39,181.45,95.078,69.4
291.23,183.82,94.717,69.136
280.71,184.16,95.067,69.392
268.48,180.16,95.732,69.877
255.05,177.76,95.406,69.64
245.58,175.09,95.181,69.475
233.41,177.25,95.302,69.564
240.6,155.51,95.895,69.996
225.85,156.46,95.866,69.975
212.21,184.3,95.108,69.422
211.78,183.54,94.94,69.299
226.41,169.96,94.129,68.707
229.12,166.99,93.768,68.444
235.69,163.11,94.575,69.033
240.43,161.54,95.48,69.693
244.06,160.92,96.286,70.282
245.99,160.03,96.696,70.581
246.73,160.41,96.898,70.728
244.77,159.85,97.54,71.197
242.46,159.77,98.146,71.639
236.87,160.71,98.718,72.057
233.24,160.03,99.538,72.656
228.45,159.37,99.854,72.886
224.14,159.92,99.854,72.886
222.76,159.43,100.43,73.304
222.32,159.61,101.06,73.768
222.65,159.89,101.64,74.19
229.02,160.15,101.73,74.253
242.23,160.41,101.35,73.979
252.95,160.52,100.9,73.647
262.01,158.56,101.15,73.829
274.77,158.48,100.56,73.4
287.84,156.67,100.26,73.186
300.58,155.36,100.05,73.03
310.32,153.07,100.62,73.447
313.87,152.6,100.19,73.128
312.89,153.11,99.304,72.485
309.95,154,98.057,71.575
302.44,160.41,97.823,71.404
300.46,161.85,97.623,71.258
300.8,161.81,97.341,71.052
301.69,158.58,97.468,71.145
306.79,154.32,97.055,70.843
308.68,158.02,96.514,70.448
309.06,158.39,97.161,70.92
305.75,159.99,98.008,71.539
295.19,162.59,98.311,71.76
284.45,165.34,98.42,71.839
268.51,170.67,98.932,72.213
257.28,170.55,99.176,72.391
247.01,175.66,99.715,72.785
235.56,178.93,99.983,72.98
227.66,180.49,99.946,72.953
219.91,182.74,99.846,72.88
217.67,184.39,98.763,72.09
218.38,185.45,97.939,71.488
217.25,187.19,96.708,70.589
218.06,188.64,95.436,69.661
233.2,166.5,94.315,68.843
236.56,166.91,94.493,68.973
240.9,166.05,93.984,68.601
243.18,165.87,94.054,68.653
244.74,165.62,93.987,68.603
246.85,166.67,93.532,68.271
249.5,168.16,92.946,67.843
252.24,170.48,92.411,67.453
253.5,172.21,91.709,66.941
253.77,174.2,90.618,66.145
253.83,175.74,90.443,66.017
253.45,177.31,90.139,65.795
252.29,177.65,89.519,65.342
250.78,177.06,89.672,65.454
248.2,177.16,89.545,65.361
244.07,177.3,89.568,65.378
240.98,176.67,89.531,65.351
235.56,175.35,89.537,65.356
229.03,169.72,88.891,64.884
218.57,189.08,88.996,64.961
221.5,176.27,89.102,65.038
219.82,172.72,89.593,65.396
218.1,170.39,90.01,65.701
216.34,169.51,90.182,65.826
212.82,169.08,90.439,66.014
211.88,170.32,91.252,66.607
210.07,171.56,92.255,67.34
210.06,171.92,92.782,67.724
211.69,172.02,93.429,68.196
214.04,171.62,94.027,68.633
223.02,171.14,94.288,68.823
228.35,170.38,94.408,68.911
234.35,169.64,94.527,68.998
240.93,168.28,94.819,69.211
250.98,166.95,94.689,69.116
264.92,164.65,94.799,69.196
275.84,162.69,95.061,69.387
285.46,162.67,95.223,69.506
297.95,159.44,95.214,69.499
305,157.77,95.697,69.852
317.39,156.7,95.809,69.934
327.71,154.72,96.297,70.29
333.07,153.8,96.355,70.332
341.84,154.81,96.327,70.311
345.65,155.13,96.183,70.207
350.9,157.63,96.553,70.477
352.42,158.46,97.754,71.354
352.96,159.49,98.433,71.849
352.13,159.26,98.817,72.129
352.08,160.61,99.498,72.626
350.95,160.98,99.53,72.649
349.85,160.89,99.62,72.715
349.56,160.97,99.556,72.668
349.09,161.1,99.906,72.924
348.62,161.4,100.32,73.226
348.28,161.76,100.27,73.188
347.46,161.51,100.47,73.338
346.9,161.23,100.59,73.426
346.91,161.17,100.63,73.449
347.48,161.55,100.93,73.674
347.94,161.39,100.94,73.681
348.1,160.95,100.62,73.445
348.47,161.68,100.28,73.195
349.48,162.25,100.67,73.48
349.31,163.03,100.22,73.154
349.03,163.68,100.95,73.686
348.58,165.19,100.86,73.619
348.68,166.67,100.64,73.461
348.54,167.04,100.72,73.518
348.2,168.18,99.854,72.886
348.09,168.97,99.317,72.494
347.99,170.61,99.68,72.759
346.96,172.82,99.8,72.846
345.84,174.33,99.231,72.431
344.14,176.98,99.559,72.671
342.57,177.53,100.01,72.999
341.15,179.77,99.565,72.675
352.98,137.49,100.03,73.018
338.84,181.67,100.01,73.001
337.72,183.77,100.5,73.36
337.35,185.05,100.2,73.139
336.53,186.96,101.08,73.781
335.17,187.61,101.45,74.05
334.88,188.02,102.28,74.657
334.01,187.95,101.82,74.318
333.44,189.05,101.61,74.166
332.29,189.15,101.38,73.997
331.66,189.74,101.85,74.341
331.11,190.47,101.45,74.05
330.52,191.2,100.86,73.62
329.58,192.21,100.75,73.537
328.17,193.16,100.57,73.409
325.86,193.34,99.554,72.667
324.27,193.71,98.876,72.173
323.46,193.99,97.853,71.425
320.73,195.12,97.055,70.843
317.81,196.43,96.489,70.43
314.6,198.14,95.613,69.79
313.28,198.69,95.534,69.733
312.54,198.86,95.125,69.434
310.85,197.77,94.448,68.94
311.05,198.24,93.155,67.997
310.32,196.95,92.808,67.743
311.53,195.74,91.875,67.062
313.61,193.02,91.29,66.635
315.89,190.03,90.949,66.386
317.46,185.82,91.077,66.479
320.21,182.15,91.645,66.894
323.41,181.67,92.037,67.18
321.18,175.2,91.321,66.658
301.38,169.28,89.422,65.271
299.32,160.94,88.671,64.723
299.28,153.69,87.957,64.202
297.2,147.09,86.464,63.112
309.38,128.36,85.826,62.647
309.21,128.74,85.328,62.283
308.8,127.43,84.532,61.702
308.38,127.07,84.324,61.55
308.18,126.83,84.168,61.437
308.24,128.06,84.974,62.025
307.93,128.66,84.929,61.992
308.02,129.59,84.686,61.814
308.1,130.84,84.812,61.906
308.3,131.14,84.298,61.531
306.87,130.76,84.151,61.424
305.65,131.52,84.001,61.314
302.4,134.92,83.861,61.212
298.81,135.8,83.721,61.111
294.79,136.38,83.159,60.7
289.74,136.54,82.857,60.479
284.32,136.86,82.645,60.325
273.26,139.24,82.52,60.233
269.48,140.35,82.383,60.133
263.95,139.41,82.584,60.28
262.58,142.55,83.915,61.252
251.21,152.39,82.846,60.472
248.91,152.99,81.952,59.819
248.34,154.28,81.31,59.35
248.24,154.08,80.18,58.526
247.96,154.43,79.6,58.102
248.12,154.54,79.387,57.947
250.39,155.19,79.19,57.803
252.86,154.61,78.692,57.44
255.12,154.77,78.576,57.355
256.33,154.16,78.438,57.254
257.21,153.96,78.382,57.213
262.49,152.93,78.004,56.937
260.54,153.25,77.747,56.75
261.12,154.15,77.485,56.558
271.18,144.18,77.078,56.261
271.08,147.4,76.711,55.993
268.8,153.54,76.95,56.168
266.49,157.31,76.61,55.92
263.25,161.89,77.328,56.444
258.89,165.65,78.123,57.024
253.69,169.37,78.838,57.546
246.66,173.15,79.239,57.839
240.15,175.08,79.844,58.28
235.22,176.53,80.142,58.498
230,176.09,79.832,58.271
227.95,176.46,80.061,58.438
224.47,175.95,80.213,58.55
224.85,175.37,80.274,58.594
227.87,174.71,80.733,58.929
238.12,173.66,80.841,59.008
249.17,172.13,80.686,58.895
273.21,165.32,80.815,58.989
288.72,164.11,80.12,58.482
304.09,160.04,79.89,58.314
318.86,155.88,79.848,58.284
332.77,151.51,79.618,58.115
354.05,141.83,79.123,57.754
361.65,137.87,79.441,57.986
370.73,135.12,79.628,58.122
373.74,133.5,79.296,57.881
376.54,132.02,78.93,57.613
373.59,134.98,79.012,57.673
364.64,140.05,79.331,57.905
354.73,145.69,79.777,58.231
339.78,150.72,79.679,58.16
329.8,156.91,79.574,58.083
307.04,165.56,79.415,57.967
296.41,170.59,79.219,57.824
282.17,173.52,79.438,57.984
276.7,174.48,79.367,57.932
270.63,175.22,79.317,57.896
268.87,173.95,79.225,57.828
268.99,171.41,79.163,57.783
273.82,171.29,79.338,57.911
271.92,175.03,78.782,57.505
278.15,173.06,78.965,57.639
287.7,173.13,78.78,57.504
295.38,173.03,78.423,57.243
297.21,173.85,78.372,57.206
295.15,176.18,77.914,56.871
295.22,177.15,77.005,56.208
290.4,159.51,76.491,55.833
289.91,158.49,75.886,55.391
289.1,159.89,75.306,54.968
285.66,163.16,74.818,54.611
282.65,165.71,74.658,54.495
279.06,169.27,74.021,54.03
276.71,171.96,73.772,53.848
276.36,173.54,73.477,53.633
276.17,175.73,73.494,53.646
276.83,177.61,73.319,53.517
276.18,178.83,72.988,53.276
275.52,179.79,73.396,53.574
273.73,180.41,72.936,53.238
271.52,180.37,72.637,53.019
269.76,179.79,71.833,52.433
265.02,178.55,71.041,51.855
261.12,178.18,70.546,51.493
257.3,176.8,70.418,51.4
254.33,176.64,70.079,51.153
252.6,175.27,70.037,51.122
251.41,175.16,70.21,51.248
250.5,174.71,69.994,51.09
250.56,173.9,69.383,50.645
251,174.24,69.451,50.694
251.78,173.18,69.515,50.741
253.1,173.68,69.525,50.748
255.26,173.22,69.69,50.869
255.58,173.45,69.606,50.807
256.56,172.99,69.996,51.092
256.7,172.85,70.28,51.3
257.18,172.77,69.94,51.051
257.51,172.48,69.584,50.791
257.57,172.57,69.275,50.566
257.06,171.99,68.473,49.981
257.88,172.35,68.028,49.656
257.16,172.44,68.067,49.684
257.06,172.45,67.685,49.405
255.77,172.3,67.471,49.249
255.04,172.8,66.916,48.844
252.83,173.34,67.136,49.005
250.05,173.56,67.051,48.943
247.27,174.14,66.877,48.815
245.06,174.13,66.553,48.579
244.56,173.52,66.576,48.596
243.56,171.71,66.299,48.393
245.42,171.28,66.064,48.222
251.28,166.43,65.991,48.169
255.03,185.8,65.658,47.925
263.99,177.52,66.254,48.36
270.04,175.9,66.648,48.648
274.48,174.48,67.444,49.229
282.46,172.12,67.7,49.416
284.07,170.75,68.191,49.774
287,168.98,68.381,49.913
289.76,168.45,68.362,49.899
291.62,167.85,68.668,50.123
294.94,168.01,68.819,50.233
297.15,168.41,68.867,50.268
298.08,168.34,68.785,50.208
298.13,167.79,68.69,50.138
298.91,168.65,68.836,50.245
298.73,168.28,68.778,50.203
298.08,168.06,68.89,50.285
297.44,168.42,69.163,50.484
296.06,167.4,69.466,50.705
294.19,168.01,69.913,51.031
291.47,169.13,70.651,51.57
288.8,169.33,70.372,51.367
285.52,169.71,70.661,51.577
283.19,170.88,71.013,51.835
280.86,171.12,71.508,52.196
279.02,172.08,71.574,52.244
277.99,173.33,71.472,52.169
276.99,173.27,71.964,52.528
275.47,172.93,72.334,52.799
275.89,172.93,72.549,52.956
274.96,172.39,72.707,53.07
274.37,169.88,72.414,52.857
275.52,169.83,72.466,52.895
276.18,169.01,72.124,52.645
276.35,168.38,71.515,52.201
276.49,167.91,71.218,51.984
276.78,167.48,71.46,52.161
277.27,167.39,71.276,52.026
276.96,167.15,70.828,51.699
278.39,167.82,71.274,52.024
279.07,167.68,71.476,52.172
279.26,167.58,71.901,52.482
279.28,166.67,71.993,52.55
279.27,166.37,72.31,52.781
280.12,166.32,72.375,52.828
280.89,166.96,72.437,52.874
280.52,166.21,72.297,52.771
280.41,166.23,72.227,52.72
280.79,166.74,72.123,52.644
280.92,166.51,72.137,52.655
281.28,166.61,71.911,52.49
282.06,166.52,71.844,52.441
283.69,166.6,71.974,52.535
286.06,166.63,71.993,52.55
289.3,167.63,71.51,52.197
294.48,169.19,70.463,51.433
297.91,171.64,69.762,50.921
300.46,177.04,69.919,51.035
304.49,180.57,70.007,51.1
308.62,181.64,70.135,51.194
315.18,187,69.639,50.832
318.2,188.13,68.934,50.317
319.48,188.55,69.004,50.368
321.42,190.24,68.894,50.287
322.38,190.15,68.837,50.246
322.26,190.31,69.045,50.398
323.07,190.84,69.098,50.437
321.16,190.35,69.225,50.529
318.64,189.38,68.558,50.042
316.47,189.48,67.899,49.562
311.14,190.03,67.974,49.616
313.19,168.22,68.334,49.879
309.25,167.73,68.09,49.701
306.64,167.57,67.835,49.515
304.31,167.83,67.619,49.357
299.5,167.54,67.126,48.997
295.66,168.37,66.756,48.727
291.89,167.96,66.295,48.391
288.55,168.3,66.145,48.281
284.28,168.52,66.582,48.6
280.28,169.49,66.839,48.787
277.28,170.65,67.145,49.011
273.63,171.04,67.357,49.166
272.1,171.71,67.324,49.141
270.32,171.83,67.241,49.081
269.25,171.42,67.161,49.023
269.02,171.7,66.91,48.839
269.98,172.58,67.009,48.912
270.97,172.94,66.957,48.873
273.77,173.46,67.492,49.264
277.8,174.25,67.701,49.417
282.05,174.05,67.674,49.397
286.82,172.79,67.738,49.444
316.93,142.89,68.617,50.085
322.68,141.88,68.819,50.232
329.83,141.12,68.891,50.286
333.12,142.39,69.495,50.726
333.49,142.48,69.891,51.015
329.46,142.07,69.379,50.642
307.46,159.35,69.689,50.868
307.31,157.81,69.669,50.853
305.8,157.9,69.491,50.723
303.81,165.53,69.512,50.739
305.77,168.02,69.354,50.623
307.1,171.12,69.827,50.969
306.98,172.76,69.749,50.911
300.66,175.53,69.911,51.03
294.56,174.86,70.316,51.326
289.31,175.62,71.149,51.933
287.99,175.58,71.449,52.152
286.37,162.97,70.936,51.778
285.18,162.81,70.933,51.776
285.33,163.89,70.936,51.778
287.21,164.26,70.516,51.472
290.5,164.92,70.524,51.477
291.76,164.49,70.504,51.463
291.45,163.73,71.076,51.88
289.28,165.54,71.626,52.282
284.7,168.66,72.308,52.78
275.85,173.1,72.185,52.69
264.65,191.26,73.426,53.596
263.66,192.93,73.961,53.986
261.86,196.1,74.232,54.184
259.57,198.07,74.435,54.332
260.95,195.69,74.822,54.615
263.58,196.89,75.326,54.983
269.28,197,75.324,54.981
274.3,196.15,75.986,55.464
277.1,193.97,76.923,56.148
278.82,193.89,76.759,56.029
286.43,185.15,77.665,56.69
291.17,177.91,76.968,56.181
296.68,169.13,76.837,56.086
309.71,144.58,77.416,56.508
330.17,124.54,78.287,57.144
342.81,111.46,78.39,57.219
329.82,114.71,78.351,57.19
336.12,105.95,78.817,57.53
342.89,100.38,78.565,57.347
349.03,94.658,79.468,58.006
354.71,88.638,79.8,58.248
358.56,88.44,80.107,58.472
388.68,102.08,79.776,58.231
393.24,103.77,79.936,58.347
396.68,104.23,80.268,58.59
413.18,103.73,80.434,58.711
418.6,113.69,80.346,58.647
419.38,122.73,80.151,58.505
412.13,139.61,79.978,58.378
403.5,151.77,79.615,58.113
432.14,161.39,79.807,58.253
434.02,159.5,80.168,58.516
436.38,162.05,80.331,58.636
442.96,163.35,80.562,58.805
448.52,164.62,81.068,59.174
459.53,170.03,80.432,58.71
467.5,173.42,80.129,58.488
473.88,178.38,80.196,58.537
480.32,183.79,79.939,58.35
486.46,184.69,79.766,58.223
496.77,188.24,79.302,57.885
502.67,190.2,79.582,58.089
504.2,190.67,79.384,57.944
505.51,192.49,79.3,57.883
505.28,193.84,79.243,57.841
504.86,194.23,79.153,57.776
504.06,194.67,79.506,58.033
504.41,193.4,80.12,58.482
503.35,193.62,80.748,58.94
502.81,192.85,81.347,59.377
502.59,192.07,81.982,59.841
502.43,193.54,82.649,60.328
502.73,192.91,82.782,60.425
503.32,192.41,82.266,60.048
504.12,192.52,81.716,59.647
504.55,192.19,82.001,59.855
505.82,192.8,81.958,59.823
506.36,193.31,81.482,59.476
506.91,193.4,81.208,59.276
506.65,192.72,80.572,58.812
507.34,192.58,80.227,58.56
508.26,191.93,79.524,58.046
510.23,191.75,78.938,57.619
512.26,191.76,78.212,57.089
514,191.38,77.254,56.389
514.95,190.57,76.868,56.108
513.75,187.86,76.476,55.822
510.71,185.35,75.747,55.29
510.23,182.84,75.408,55.043
508.8,183.9,74.835,54.624
508.17,185.34,75.122,54.834
529.38,142.35,76.606,55.917
525.67,139.09,77.285,56.413
517.69,136.54,77.995,56.931
511.67,134.15,78.333,57.178
507.28,131.94,78.448,57.261
498.73,129.84,78.874,57.572
493.13,129.8,79.178,57.794
487.71,129.48,79.829,58.269
481.14,128.13,79.327,57.903
475.8,126.85,79.387,57.947
468.67,126.95,79.502,58.03
465.03,127.59,79.663,58.148
461.58,128.9,79.981,58.38
460.5,130.05,80.532,58.783
460.61,129.88,80.927,59.071
463.59,127.55,80.939,59.079
467.73,125.18,81.178,59.254
472.12,121.65,80.701,58.906
474.64,118.53,80.49,58.752
473.98,154.9,79.63,58.124
498.12,150.02,79.073,57.718
508.22,144.07,79.031,57.687
512.67,141.98,78.815,57.529
515.72,141.26,78.75,57.482
517.11,141.66,78.146,57.041
515.16,150.18,77.861,56.833
515.75,152.8,77.387,56.487
514.48,158.29,77.331,56.446
511.65,164.75,77.253,56.389
509.52,168.99,77.411,56.505
504.77,174.46,77.726,56.734
503.34,177.78,77.749,56.751
501.3,180.4,78.023,56.951
498.18,180.27,78.018,56.947
489.39,182.55,77.896,56.858
486.37,176.14,77.221,56.366
502.95,188.87,76.998,56.203
504.35,189.91,76.552,55.877
505.78,191.89,76.482,55.826
504.23,189.57,76.456,55.807
503.12,186.98,76.567,55.888
474.61,150.57,76.402,55.768
470.32,169.34,76.581,55.899
466.42,183.73,76.399,55.766
469.02,182.83,76.498,55.838
473.25,182.8,76.872,56.111
476.37,182.99,76.969,56.181
479.82,183.24,76.449,55.802
482.8,184.02,76.187,55.611
485.62,186.91,75.921,55.417
488.91,187.6,75.088,54.808
490.13,189.18,74.178,54.144
491.51,189.75,73.469,53.627
491.23,189.96,73.144,53.39
491.08,190.44,72.883,53.2
489.53,189.52,72.718,53.079
487.87,188.82,72.334,52.799
486.86,187.97,72.663,53.039
487.07,187.04,72.381,52.833
486.57,181.01,72.49,52.912
482.84,180.57,72.507,52.924
507.58,189.21,72.402,52.848
508.31,190.29,72.383,52.834
484.07,184.99,72.073,52.608
485.01,185.1,72.407,52.852
485.37,185.26,73.007,53.29
487.11,185.58,73.261,53.475
488.71,186.11,73.406,53.581
490.72,186.19,73.23,53.453
491.9,186.37,73.326,53.522
493.78,186.76,72.928,53.232
494.95,187.05,72.259,52.744
495.82,187.91,71.545,52.223
495.44,188.48,71.503,52.192
495.04,188.54,71.352,52.082
493.81,188.5,71.243,52.002
492.08,188.38,71.284,52.032
490.99,188.32,71.597,52.26
489.9,188.27,72.204,52.703
488.71,187.72,72.452,52.885
489.2,187.91,72.235,52.726
488,180.91,71.906,52.486
488.91,179.34,71.856,52.45
486.85,185.58,71.921,52.497
486.53,185.95,72.393,52.842
487.31,186.69,72.385,52.836
487.37,186.76,72.552,52.957
488.28,187.07,72.816,53.15
489.12,187.21,73.026,53.303
490.6,187.7,72.938,53.239
491.6,188.08,72.852,53.177
492.76,188.66,72.568,52.969
493.38,189.02,72.621,53.008
493.71,189.41,72.466,52.895
493.84,189.79,72.102,52.629
493.54,190.56,72.04,52.584
493.19,191.02,71.758,52.378
492.45,191.5,72.11,52.635
491.99,192.21,72.322,52.79
491.3,192.55,72.527,52.94
490.9,192.15,72.95,53.249
490.39,191.73,72.879,53.196
490.84,191.39,73.064,53.332
490.85,191.76,73.101,53.359
490.29,192.35,73.451,53.614
490.61,192.14,73.382,53.563
491.8,191.85,72.912,53.22
491.97,192.35,73.054,53.324
492.01,192.64,73.602,53.724
492.52,192.84,73.752,53.834
492.25,193,73.938,53.97
492.11,193.64,73.922,53.958
492.11,193.63,73.916,53.954
492.28,193.92,73.632,53.746
492.56,194.04,73.49,53.642
492.45,193.97,73.433,53.601
492.29,193.84,73.515,53.66
492.35,193.93,73.522,53.666
492.28,194.24,73.611,53.73
492.56,194.7,73.592,53.717
492.32,195.01,73.562,53.695
492.63,194.89,73.464,53.624
492.32,194.93,73.518,53.663
492.4,195.22,73.344,53.536
492.34,195.12,73.226,53.449
492.56,195.5,73.092,53.352
492.52,195.71,73.394,53.573
491.98,195.72,73.368,53.553
491.9,195.52,73.346,53.537
491.8,195.62,73.742,53.827
491.87,195.9,73.938,53.969
491.63,195.74,74.009,54.021
491.35,195.39,73.992,54.009
491.62,195.72,73.746,53.829
491.75,195.93,73.727,53.815
491.81,195.59,73.677,53.779
491.45,195.55,73.606,53.727
491.07,195.92,74.137,54.115
491.96,195.57,73.382,53.563
491.3,194.84,73.994,54.01
491.96,194.91,73.472,53.629
492.46,194.95,73.177,53.414
493.42,194.41,72.396,52.844
494.74,194.16,71.281,52.03
496.19,193.77,70.776,51.661
498.72,194.07,69.415,50.668
500.38,193.99,69.339,50.612
502.37,193.54,68.892,50.286
504.91,193.82,68.812,50.228
506.24,193.51,69.183,50.499
508.08,193.87,69.435,50.682
510.5,193.92,70.235,51.267
513.22,195.84,70.049,51.131
515.23,196.35,71.004,51.828
516.07,197.65,71.909,52.489
518.11,198.92,71.891,52.475
521.48,199.66,72.463,52.893
522.73,201.06,72.159,52.671
524.11,201.36,72.22,52.716
525.62,202.9,71.987,52.545
525.96,203.2,72.011,52.563
526.74,203.64,71.92,52.496
527.3,203.68,71.676,52.318
527.81,204.44,71.244,52.003
527.95,204.31,70.663,51.579
528,204.45,71.028,51.845
527.68,203.81,71.208,51.977
527.87,203.51,71.138,51.925
527.93,203.73,71.653,52.301
527.66,203.51,71.217,51.983
527.82,203.49,70.946,51.785
527.59,203.41,70.92,51.767
527.63,202.78,70.987,51.816
527.83,203.27,70.821,51.694
528.15,202.75,71.004,51.828
529.07,202.82,70.731,51.629
528.88,203.09,70.494,51.456
528.39,202.99,69.884,51.01
526.46,202.76,69.364,50.631
523.88,202.33,69.135,50.463
521.17,202.63,69.573,50.784
516.27,202.98,69.335,50.61
512.71,202.05,68.97,50.343
509.26,201.84,68.85,50.256
506.08,201.42,69.023,50.381
504.2,201.04,68.961,50.337
498.98,199.56,68.997,50.363
498.09,198.8,69.1,50.438
496.79,198.23,68.869,50.269
495.74,197.35,69.383,50.644
495.43,196.84,69.777,50.932
494.89,196.28,69.924,51.04
495.79,196.14,69.904,51.025
496.34,196.07,70.339,51.342
498.25,195.51,70.117,51.18
499.71,195.85,70.465,51.434
505.04,195.61,70.8,51.679
506.2,196.57,70.583,51.521
508.16,196.75,70.334,51.339
508.72,196.83,70.356,51.355
509.81,196.27,70.429,51.408
511.69,196.95,70.446,51.42
512.2,196.75,70.226,51.26
512.86,196.12,69.957,51.063
512.94,195.64,69.333,50.608
512.7,194.89,69.26,50.555
513.23,194.74,69.147,50.473
514.11,194.99,68.67,50.124
491.47,329.66,68.068,49.685
498.15,324.6,68.307,49.859
496.45,325.11,68.612,50.082
495.11,325.93,69.22,50.525
489.89,326.42,68.848,50.254
485.1,326.32,68.372,49.907
480.85,328.3,67.538,49.298
478.75,328.29,66.873,48.812
477.99,328.15,66.527,48.56
480.8,326.93,66.517,48.553
486.95,324.17,66.266,48.369
489.85,323.44,65.977,48.158
483.65,325.82,65.346,47.698
486.79,324.93,64.871,47.351
487.8,323.76,64.49,47.073
485.41,323.27,63.805,46.573
486.11,321.75,63.692,46.491
485.49,320.84,63.317,46.217
485.76,318.83,63.449,46.313
485.44,316.8,63.792,46.564
485.6,315.66,64.089,46.78
486.94,312.12,64.147,46.823
485.5,312.94,64.25,46.898
486.38,312.94,64.611,47.161
490.18,312.89,64.409,47.014
483.55,319.82,64.436,47.034
484.21,321.01,64.256,46.902
485.17,321.62,64.581,47.139
485.56,321.47,63.925,46.661
486.92,321.59,62.89,45.905
488.67,322.08,61.932,45.205
490.07,322.23,60.777,44.363
491.83,323.19,59.536,43.457
492.39,323.43,58.364,42.602
493.87,323.05,57.349,41.861
493.87,323.14,56.482,41.228
494.64,323.5,55.722,40.673
495.05,323.73,55.275,40.347
495.02,323.9,54.531,39.804
496.32,324.73,54.35,39.672
495.94,325.17,53.934,39.368
496.51,324.8,54.111,39.497
496.62,324.77,53.788,39.261
496.49,324.71,53.758,39.239
496.42,323.89,53.686,39.187
496.18,324.13,53.915,39.354
496.51,324.08,54.22,39.577
495.77,324.07,53.195,38.829
495.56,324.19,52.837,38.567
495.91,324.66,52.47,38.299
496.13,324.86,52.286,38.165
496.6,324.7,52.652,38.432
496.59,324.39,52.762,38.512
496.24,325.45,53.004,38.689
496.85,325.57,52.74,38.496
497.36,326.13,52.602,38.395
497.66,326.43,52.183,38.09
498.5,326.92,51.421,37.533
499.93,327.49,50.966,37.202
499.9,327.92,50.104,36.573
500.64,328.21,49.383,36.046
501.91,328.64,48.653,35.513
502.87,328.68,48.376,35.311
502.53,328.59,47.55,34.708
504.81,338.1,47.573,34.725
505.73,339.58,46.524,33.959
505.57,335.09,45.58,33.27
506.88,334.75,45.953,33.543
507.12,338.47,45.236,33.019
507.09,336.9,45.029,32.868
506.89,334.55,44.549,32.517
507.39,336.76,44.221,32.278
507.8,338.6,43.355,31.646
507.96,340.11,42.944,31.346
507.75,338.79,42.755,31.208
507.91,338.28,42.596,31.092
508.12,337.68,42.895,31.31
508.07,337.31,43.284,31.594
507.36,337.78,43.388,31.67
507.49,338.73,43.903,32.046
507.16,331.63,44.351,32.373
505.83,330.36,44.535,32.507
504.71,330.29,44.468,32.458
504.26,330.51,44.381,32.395
502.44,329.4,44.324,32.353
501.61,329.54,43.74,31.927
501.23,328.99,44.925,32.792
500.7,328.56,46.429,33.889
499.48,327.89,47.694,34.813
498.43,327.62,48.711,35.556
497.57,327.17,50.226,36.662
495.96,327.2,51.598,37.662
494.92,325.72,52.744,38.499
495.22,325.15,54.014,39.426
495.49,325.77,55.04,40.175
495.5,325.75,55.891,40.797
494.02,325.68,56.519,41.255
493,326.33,57.329,41.846
493.89,326.45,57.84,42.219
492.22,326.3,58.435,42.653
491.61,326.42,59.094,43.135
489.45,327.83,60.253,43.981
489.01,327.04,60.846,44.413
488.93,325.35,61.438,44.845
487.42,324.87,61.845,45.143
488.13,322.53,62.145,45.361
489.06,320.93,62.454,45.587
486.72,320.23,62.935,45.938
489.34,319.46,62.352,45.513
490.43,320.37,62.012,45.264
492.15,321.1,61.177,44.655
491.9,322.32,61.027,44.545
491.47,322.37,60.94,44.482
492.1,322.17,60.528,44.181
490.99,322.25,60.938,44.48
490.83,321.91,61.244,44.703
488.46,323.68,61.672,45.016
488.09,325.29,62.168,45.378
488.42,325.8,62.529,45.642
488.19,325.89,62.879,45.897
488.46,326.94,62.99,45.978
488.39,327.68,63.093,46.053
488.64,327.67,63.075,46.04
488.06,327.52,63.314,46.214
488.46,327.48,63.372,46.257
487.32,327.33,63.641,46.453
487.79,327.47,63.973,46.696
488.31,325.35,63.588,46.415
486.79,327.64,63.829,46.59
487.53,328.56,64.033,46.739
485.22,331.27,64.794,47.295
486.24,331.97,65.249,47.627
487.28,331.24,64.874,47.353
486.94,331.37,65.035,47.471
487.74,332.54,64.698,47.225
488.81,326.4,63.379,46.262
487.92,322.8,63.48,46.336
488.98,330.52,63.153,46.097
489.79,330.5,63.124,46.076
489.45,330.74,62.994,45.981
489.03,329.75,63.032,46.008
488.39,329.29,63.731,46.519
488.15,328.03,63.924,46.66
487.71,325.89,63.652,46.461
487.96,323.71,63.708,46.502
489.27,320.54,63.231,46.154
489.66,318.44,62.837,45.866
489.61,316.83,62.758,45.809
489.88,315.5,62.647,45.728
489.85,315.05,62.494,45.616
489.67,313.96,62.429,45.569
489.6,312.76,62.546,45.654
490.1,312.27,62.478,45.605
490.37,312.03,62.272,45.454
490.08,311.15,62.478,45.604
490.39,310.77,62.539,45.649
491.03,310.62,62.337,45.502
490.78,310.84,62.432,45.571
490.29,311.13,62.412,45.556
489.96,310.68,62.475,45.602
490.2,310.92,62.439,45.576
