106.5,376.5,39,88
106.84,372.47,39.001,88.001
107.46,371.67,39.893,90.015
108.41,370.87,40.783,92.023
109.21,370.48,40.87,92.219
109.48,369.99,40.465,91.306
111.29,370.45,39.994,90.243
113.14,371,39.813,89.834
115.73,371.39,40.213,90.738
116.11,372.08,40.477,91.332
117.2,372.63,40.147,90.588
118.84,373.5,40.328,90.997
119.77,374.19,39.931,90.102
118.57,374.61,39.787,89.776
112.29,374.97,39.992,90.238
105.6,374.51,40.347,91.04
100.31,374.27,40.425,91.216
100.21,374.01,40.558,91.516
100.64,374.43,40.575,91.555
101.81,374.65,41.167,92.889
103.57,374.71,41.716,94.129
105.28,375.37,41.439,93.503
106.4,376.23,41.276,93.135
105.95,376.8,40.925,92.344
106.86,377.74,40.476,91.331
107.98,378.67,40.234,90.784
108.9,379.17,40.5,91.385
108.29,378.68,41.596,93.857
106.64,377.86,41.744,94.192
106.54,378.12,42.13,95.063
104.07,377.23,42.596,96.114
99.562,376.38,42.423,95.724
97.822,376.79,42.6,96.123
96.777,377.33,42.29,95.424
96.602,378.24,42.106,95.007
97.568,379.7,42.008,94.787
97.87,380.81,41.796,94.309
98.864,381.34,41.996,94.76
98.715,381.14,42.082,94.954
97.717,381.59,42.252,95.338
93.315,381.37,42.34,95.535
83.458,380.31,42.833,96.648
70.974,380.7,43.004,97.035
62.7,380.86,43.503,98.161
56.395,381.33,43.168,97.405
52.289,382.67,42.944,96.899
44.735,385.47,42.446,95.775
40.678,387.39,42.377,95.62
35.684,388.75,42.398,95.668
29.608,390.12,42.365,95.594
19.585,390.78,42.467,95.824
-2.4843,393.31,42.441,95.765
-10.85,393.53,42.878,96.751
-16.344,393.15,42.673,96.288
27.014,391.23,42.352,95.562
26.6,391.56,42.286,95.415
26.5,390.19,42.061,94.908
24.426,390.26,41.53,93.709
18.024,390.55,41.03,92.58
10.238,393.03,40.679,91.788
3.563,395.22,40.651,91.726
0.65367,397.28,40.902,92.293
0.79014,396.91,41.322,93.239
0.56789,396.46,41.349,93.301
-0.50653,396.2,41.744,94.191
-2.4201,395.61,42.467,95.823
-6.8686,397.07,43.135,97.329
-8.5227,398.13,43.391,97.908
-10.595,399.78,43.525,98.211
-15.387,400.88,43.621,98.427
-20.85,401.85,44.352,100.08
11.14,392.52,44.258,99.865
7.1101,390.94,44.207,99.749
5.0443,390.27,44.005,99.293
4.1486,390.52,44.004,99.292
3.0718,391.02,43.95,99.17
2.5432,392.19,43.896,99.047
-3.122,396.4,43.496,98.145
-8.436,397.74,42.996,97.016
7.678,393.02,43.087,97.223
-2.3479,395.31,42.57,96.055
-4.12,395.63,42.505,95.909
-7.0232,397.04,42.017,94.808
1.5604,395.27,41.282,93.149
-5.2673,388.79,40.285,90.898
-18.75,409.54,41.257,93.093
-0.25212,390.12,40.698,91.831
8.633,400.46,40.142,90.576
5.7139,403.22,40.068,90.409
10.722,402.02,40.249,90.819
-9.3675,415.17,40.627,91.672
-4.6421,411.9,40.754,91.957
6.9931,411.82,40.646,91.713
-13.382,416.44,41.675,94.037
-7.6888,417.28,42.446,95.777
1.351,414.8,42.96,96.934
9.6568,417.82,43.501,98.156
23.801,416.47,44.054,99.403
30.464,416.02,44.748,100.97
36.82,415.35,45.389,102.42
43.375,417.32,45.489,102.64
48.686,419.77,45.735,103.2
64.909,420.09,46.188,104.22
73.964,420.93,46.468,104.85
66.014,386.31,46.095,104.01
67.688,386.47,46.176,104.19
69.708,386.72,46.148,104.13
74.343,386.46,46.259,104.38
75.845,386.12,46.2,104.25
77.873,386.43,46.339,104.56
79.634,386.28,46.539,105.01
80.805,385.88,46.525,104.98
83.159,385.16,46.409,104.72
84.573,385.51,45.953,103.69
84.767,387.34,46.129,104.09
87.046,387.2,45.781,103.3
89.162,386.84,45.484,102.63
92.995,387.55,45.331,102.28
96.118,388.49,45.139,101.85
96.824,387.82,44.723,100.91
99.119,388.5,44.737,100.95
102.95,388.94,44.73,100.93
106.73,388.5,44.911,101.34
108.12,388.14,45.319,102.26
110.18,387.91,45.414,102.47
112.63,387.64,45.482,102.63
115.65,388.31,45.367,102.37
118.32,389.25,45.518,102.71
121.29,389.55,45.555,102.79
124,389.55,45.365,102.36
127.45,389.78,44.922,101.36
132.33,389.92,44.606,100.65
139.3,390.9,44.615,100.67
142.8,391.09,44.876,101.26
146.52,390.88,45.389,102.42
149.27,390.77,45.703,103.13
151.87,389.91,45.937,103.65
155.62,390.11,46.504,104.93
158.65,390.58,46.598,105.14
160.74,390.4,46.536,105.01
163.08,390.94,46.267,104.4
165.39,391.61,46.349,104.58
171.62,391.38,46.22,104.29
175.14,391.97,45.542,102.76
178.34,392.69,45.504,102.68
183.29,393.07,45.366,102.36
187.99,393.51,45.581,102.85
194.76,392.7,45.76,103.25
196.99,391.74,46.02,103.84
200.8,391.69,46.112,104.05
203.5,391.16,45.979,103.75
207.06,391.53,46.021,103.84
211.21,391.21,45.824,103.4
213.28,391.14,45.493,102.65
216.23,391.28,45.563,102.81
220.48,392.02,45.362,102.36
224.07,392.28,45.035,101.62
233.57,391.93,44.758,100.99
237.48,392.06,44.814,101.12
241.27,392.27,44.906,101.33
244.66,392.34,45.045,101.64
248.41,391.7,45.307,102.23
254.08,391.04,45.213,102.02
256.49,390.72,45.251,102.1
260.27,391.21,45.252,102.11
263.46,391.42,45.446,102.55
265.89,392.01,45.565,102.81
271.98,392.8,45.724,103.17
275.27,392.42,45.801,103.34
278.94,392.02,45.311,102.24
283.09,392.64,45.126,101.82
285.55,392.4,44.962,101.45
287.11,392.07,44.848,101.2
285.95,391.36,44.688,100.83
285,391.23,44.768,101.01
281.07,391.24,45.044,101.64
277.55,391.05,45.25,102.1
275.24,389.92,45.178,101.94
274.95,389.05,45.159,101.9
276.37,388.93,45.193,101.97
279.11,388.37,44.925,101.37
282.01,388.98,44.639,100.72
284.07,387.58,44.3,99.96
287.84,383.41,44.008,99.299
289.94,382.03,43.801,98.834
292.15,384.3,43.696,98.597
292.99,384.43,43.551,98.268
296.38,384.51,43.505,98.165
299.52,384.5,43.408,97.947
302.34,386.27,43.653,98.5
302.92,384.34,43.553,98.273
303.36,382.14,43.537,98.238
305.62,389.13,44.212,99.76
307.24,387.64,44.407,100.2
309.2,384.4,44.267,99.884
311.35,384,44.373,100.12
312.78,380.79,44.068,99.435
317.25,372.05,44.529,100.48
318.54,371.55,44.762,101
319.71,371.87,45.108,101.78
319.85,371.69,45.444,102.54
319.71,373.09,45.436,102.52
317.96,374.15,45.332,102.29
317.42,372.7,45.338,102.3
317.36,372.63,45.445,102.54
317.46,372.76,45.528,102.73
318.54,372.21,45.657,103.02
320.67,372.03,45.69,103.1
322.11,372.23,45.755,103.24
323.35,370.32,45.557,102.8
325.89,370.72,45.549,102.78
327.53,370.58,45.478,102.62
329.84,369.92,45.22,102.04
330.78,370.3,45.003,101.54
332.02,370.05,44.938,101.4
333.5,370.63,45.261,102.13
335.38,370.93,45.437,102.52
337.24,368.67,45.409,102.46
338.74,368.41,45.24,102.08
340.16,368.39,44.997,101.53
341.61,368.83,44.875,101.26
342.5,368.15,44.63,100.7
346.46,368.27,44.437,100.27
347.76,368.32,44.022,99.331
350.88,368.32,43.898,99.051
352.27,367.34,43.654,98.5
354.98,367.76,43.405,97.94
358.19,367.59,43.454,98.051
359.46,367.49,43.277,97.65
359.74,367.32,43.293,97.687
360.01,366.6,43.39,97.907
361.07,367.04,43.531,98.224
361.84,366.82,43.586,98.347
362.57,366.55,43.667,98.53
363.46,367.25,43.645,98.481
362.67,367.51,43.678,98.555
362.02,367.27,43.716,98.642
359.59,367.29,43.673,98.543
358.42,367.34,43.615,98.413
358.24,367.04,43.292,97.683
359.59,366.94,42.797,96.568
360.82,367.98,42.738,96.435
362.63,367.74,42.815,96.609
363.05,366.91,43.069,97.182
363.15,366.44,43.138,97.338
363.09,366.59,43.148,97.361
363.01,366.07,43.165,97.399
363.04,365.84,42.929,96.866
364.4,365.79,42.745,96.45
366.33,366.42,42.522,95.948
367.61,365.85,42.519,95.94
369.93,366.01,42.06,94.906
371.51,365.96,41.842,94.412
372.03,365.69,41.721,94.14
372.65,365.15,41.475,93.585
374.61,365.05,41.024,92.567
375.9,364.78,40.832,92.134
377.33,364.91,40.854,92.184
379.99,365.17,41.402,93.42
380.81,364.38,41.887,94.514
383.15,364.97,42.008,94.787
385.1,364.77,42.025,94.826
386.48,364.98,42.104,95.005
389.01,364.97,42.025,94.825
389.79,364.66,41.952,94.66
391.23,364.29,41.941,94.636
393.08,364.51,41.616,93.903
394.8,363.87,41.165,92.884
398.35,363.46,40.969,92.443
399.39,362.98,40.662,91.751
400.92,363,40.17,90.639
402.12,363.22,40.075,90.425
403.55,363.19,40.148,90.589
405.8,362.84,40.13,90.55
407.41,362.85,40.1,90.482
409.3,363.07,40.042,90.351
410.74,362.72,40.133,90.556
412.88,363.11,40.158,90.613
416.06,362.47,40.107,90.499
418.6,362.59,40.128,90.544
420.44,362.23,39.983,90.217
422.08,362.27,40.388,91.132
423.16,362.38,40.585,91.576
425.08,361.3,40.543,91.481
426.77,361.7,40.506,91.398
428.18,361.45,40.92,92.333
429.23,361.55,40.995,92.501
430.36,361.57,41.161,92.877
431.71,362.05,41.602,93.871
426.76,362.19,41.43,93.483
419.07,362.32,41.459,93.549
410.72,362.35,41.268,93.118
403.07,362.63,41.129,92.804
397.52,361.29,40.974,92.454
397.18,361.29,40.662,91.751
398.62,361.58,40.389,91.134
399.52,361.64,40.241,90.8
401.29,361.85,40.564,91.529
400.38,361.67,40.746,91.939
398.77,361.4,40.502,91.389
398.27,361.44,40.528,91.448
397.76,361.23,40.553,91.504
398.23,361.35,40.38,91.115
400.36,360.64,40.201,90.711
402.71,361.36,39.93,90.097
404.28,361.08,39.655,89.477
405.4,361.15,39.439,88.99
403.71,361.11,39.54,89.218
391.46,361.78,39.812,89.833
386.27,361.68,39.785,89.771
381.41,361.16,39.785,89.771
380.18,360.38,40.004,90.266
379.72,360.71,40.178,90.659
381.78,360.22,40.207,90.723
383.35,360.4,40.354,91.055
384.26,359.65,40.292,90.916
385.6,360.2,40.287,90.905
384.67,360.37,40.202,90.713
379.54,360.25,39.806,89.818
376.99,359.96,39.523,89.181
376.12,359.77,39.159,88.36
376.38,360.04,38.922,87.823
377.65,360.21,38.905,87.786
380.58,359.92,38.886,87.742
381.67,359.71,39.03,88.068
383.39,359.5,38.846,87.653
384.97,358.81,38.849,87.66
386.4,358.71,38.71,87.346
388.75,358.63,38.5,86.873
389.81,358.06,38.529,86.938
391.59,358.01,38.399,86.645
393.57,358.09,38.281,86.378
395.14,357.76,38.136,86.051
398.58,358.16,38.066,85.892
399.61,358.3,37.947,85.624
400.59,358.18,37.886,85.486
402.3,358.89,37.734,85.143
403.55,358.5,37.862,85.432
406,357.9,37.725,85.122
408,357.79,37.771,85.227
409.42,357.41,37.735,85.146
411.53,357.07,37.898,85.513
412.76,356.82,37.699,85.065
414.99,356.47,37.687,85.036
416.57,356.34,37.267,84.09
417.97,356.5,36.956,83.388
419.05,356.78,36.733,82.884
420.35,356.72,36.705,82.822
421.7,356.59,36.613,82.613
423.82,356.92,36.573,82.524
424.59,356.44,36.678,82.76
425.26,356.15,36.837,83.12
426.53,355.9,37.052,83.604
427.97,355.63,36.811,83.06
429.35,355.15,36.545,82.46
430.47,354.56,36.319,81.95
430.97,354.44,35.846,80.883
432.69,355.33,35.491,80.082
434.17,354.94,35.176,79.372
435.65,355.16,34.821,78.571
436.46,355.2,34.521,77.894
438.06,355.61,34.224,77.224
439.95,356.14,33.965,76.64
441.61,355.83,34.078,76.895
441.97,355.08,34.306,77.409
443.26,355.29,34.323,77.447
444.17,354.68,34.421,77.668
444.79,354.13,34.006,76.731
446.06,354.34,34.097,76.937
446.41,354.19,33.762,76.182
446.91,354.49,33.604,75.824
447.63,354.6,33.822,76.317
447.54,354.46,33.681,75.997
448.58,354.86,33.82,76.311
448.82,354.33,33.839,76.354
449.38,354.5,33.521,75.636
449.46,354.57,33.2,74.912
449.43,354.08,32.836,74.093
448.79,352.12,32.587,73.529
448.75,351.15,32.826,74.07
447.88,349.28,33.166,74.836
446.29,347.88,33.761,76.179
444.96,346.77,34.365,77.541
444.61,345.57,34.282,77.353
444.89,344.97,33.935,76.571
444.02,345.54,33.878,76.443
442,345.93,33.696,76.032
441.11,347.77,33.887,76.462
439.35,348.98,33.96,76.628
439.51,349.15,34.049,76.828
440.45,346.12,34.072,76.88
440.87,345.1,33.795,76.254
438.51,346.91,33.883,76.454
434.37,350.14,33.797,76.259
434.24,348.34,33.817,76.304
434.53,347.46,33.948,76.601
435.28,347.49,33.968,76.646
434.71,347.35,34.112,76.97
431.51,346.2,33.968,76.645
430.63,347.41,33.968,76.645
429.79,346.34,33.865,76.413
428.74,344.68,33.453,75.485
427.26,344.91,33.052,74.578
425.86,345.21,32.866,74.16
424.63,344.74,32.647,73.665
424.5,344.81,32.389,73.083
424.89,345.07,32.357,73.011
424.78,344.94,32.256,72.784
423.74,345.31,32.19,72.635
423.38,346.04,32.077,72.379
423.19,347.24,32.243,72.753
423.2,347.03,32.169,72.586
423.36,346.97,32.131,72.501
423.23,346.27,32.006,72.219
423.07,346.03,31.894,71.966
423.15,346.55,32.081,72.387
423.52,347.41,32.339,72.969
422.93,347.25,32.529,73.398
422.71,347.05,32.587,73.53
421.79,347,32.685,73.75
421.22,347.06,32.739,73.873
421.41,346.58,32.772,73.948
421.87,346.55,32.471,73.267
422.05,346.01,31.995,72.194
420.89,346.81,31.913,72.009
420.06,347.14,31.858,71.885
420.08,346.84,31.6,71.303
419.11,346.24,31.547,71.184
418.82,346.29,31.476,71.022
419.04,346.62,31.412,70.879
419.01,346.85,31.42,70.898
418.95,346.77,31.437,70.935
418.85,346.46,31.52,71.122
418.72,346.51,31.584,71.266
418.4,346.21,31.666,71.452
418.44,346.67,31.655,71.427
418.34,347.25,31.749,71.639
418.64,347.97,32.06,72.341
418.53,347.76,32.314,72.913
418.19,347.28,32.434,73.185
418.27,347.34,32.462,73.248
418.24,347.23,32.464,73.252
418.18,347.21,32.541,73.425
417,347.54,32.678,73.736
417.44,347.33,32.985,74.428
416.55,347.14,33.265,75.06
416.1,346.77,33.168,74.841
415.65,346.52,33.135,74.766
415.29,346.48,33.269,75.068
414.47,347,33.472,75.528
414.12,346.69,33.696,76.033
413.34,347.47,33.987,76.688
412.18,347.04,34.262,77.31
411.32,347.05,34.334,77.473
410.46,347.02,34.036,76.799
409.51,347.05,33.991,76.698
408.91,347.01,33.933,76.567
408.27,346.59,33.882,76.452
407.5,346.5,33.584,75.78
407.15,346.25,33.556,75.717
406.35,346.16,33.601,75.817
406.2,346.46,33.643,75.912
405.77,346.16,34.002,76.722
405.54,346.04,33.887,76.463
405.41,345.75,33.673,75.981
405.47,346.1,33.701,76.043
405.22,346.37,33.565,75.736
404.59,346.22,33.545,75.691
404.85,345.89,33.509,75.61
403.95,346.62,33.464,75.508
403.25,346.52,33.776,76.212
403.12,346.42,33.828,76.33
403.2,346.57,33.591,75.795
402.95,346.53,33.601,75.818
403.11,346.45,33.883,76.453
402.66,346.08,34.061,76.856
402.98,346.01,33.974,76.658
402.57,346.02,34.232,77.241
403.04,346.12,33.936,76.574
402.84,346.17,33.745,76.143
401.67,346.28,33.672,75.978
401.59,346.37,33.694,76.029
401.12,346.38,33.674,75.982
400.49,345.99,33.77,76.199
400.04,345.69,33.42,75.409
400,345.87,33.265,75.059
400.19,345.97,33.16,74.823
400.02,345.63,33.151,74.802
400.19,345.43,33.183,74.875
400.22,345.6,33.112,74.715
400.75,345.85,33.048,74.57
400.85,346,33.249,75.024
400.5,346,33.322,75.188
400.88,346.23,33.413,75.393
400.83,345.89,33.561,75.728
400.54,346.42,33.597,75.809
400.68,346.5,33.946,76.596
400.57,346.01,34.136,77.024
400.32,345.99,33.752,76.158
400.47,346.1,33.691,76.021
400.78,346.44,33.628,75.88
400.65,346.43,33.683,76.002
400.67,346.38,33.62,75.861
400.55,346.05,33.739,76.13
400.71,345.84,33.33,75.206
400.71,346.15,33.429,75.429
400.13,346.1,33.57,75.748
399.76,345.87,33.666,75.964
399.41,345.96,33.733,76.115
398.97,345.74,33.655,75.94
399.02,345.58,33.769,76.196
398.84,345.58,33.364,75.282
399.19,345.68,33.543,75.686
398.75,345.6,33.195,74.902
398.9,345.31,33.139,74.775
399.04,345.39,33.074,74.629
399.49,346.13,32.998,74.458
399.41,346.12,33.295,75.128
399.49,346.11,33.415,75.397
399.81,346.03,33.179,74.866
399.6,346.09,33.041,74.553
399.72,346.78,33.349,75.248
399.55,346.54,33.787,76.236
399.35,346.08,33.713,76.071
399.72,346.43,33.693,76.026
399.73,346.4,33.68,75.995
399.39,346.05,34.083,76.906
399.03,345.86,33.897,76.486
399.18,345.72,33.841,76.358
399.37,345.72,33.374,75.306
399.65,346.02,33.174,74.854
399.15,345.94,33.035,74.54
399.13,346.15,33.322,75.187
398.81,345.93,33.453,75.483
397.94,345.59,33.246,75.016
398.18,345.56,33.119,74.731
397.92,345.43,33.121,74.735
397.77,345.32,33.116,74.724
397.71,345.4,33.095,74.676
397.64,345.35,33.085,74.653
397.43,345.49,33.117,74.726
397.69,345.64,33.144,74.787
397.51,345.76,33.127,74.748
397.38,346.08,33.114,74.72
397.89,345.94,33.087,74.657
398.05,346.12,33.121,74.734
397.77,345.68,33.589,75.791
397.8,346.07,33.745,76.142
397.86,345.97,33.734,76.117
397.82,345.95,33.785,76.234
397.53,345.56,33.805,76.278
397.42,345.34,33.852,76.384
397.52,345.52,33.824,76.32
397.6,345.61,33.771,76.202
397.24,345.6,33.798,76.263
397.61,345.72,33.359,75.271
398.27,345.95,33.233,74.987
397.84,345.96,33.154,74.81
397.42,345.75,33.478,75.54
397.29,345.84,33.588,75.788
397.11,345.78,33.714,76.073
397.22,345.98,33.644,75.915
396.91,345.69,33.783,76.228
396.71,345.8,33.292,75.121
396.98,346,33.349,75.25
396.86,345.91,33.428,75.426
396.79,345.85,33.232,74.985
396.78,345.84,33.102,74.691
396.7,346.02,33.026,74.519
396.93,346.13,33.013,74.491
397.3,346.16,33.026,74.52
396.78,346,33.295,75.127
396.52,346.32,33.323,75.191
396.1,346.58,33.303,75.146
396.01,346.98,33.201,74.915
395.59,346.82,33.168,74.841
395.19,347.12,32.987,74.433
394.73,347.97,33.075,74.632
394.01,347.85,33.1,74.688
394.16,347.68,33.133,74.762
392.95,348.32,32.904,74.246
392.62,347.97,32.257,72.785
391.69,348,31.731,71.598
388.66,348.09,31.231,70.471
386.89,346.86,30.695,69.261
386.58,346.12,30.121,67.966
385.82,345.61,29.521,66.612
381.55,347.74,29.002,65.44
381.86,347.22,28.787,64.954
380.01,345.8,28.308,63.875
376.8,346.93,27.649,62.387
375.16,347.66,27.465,61.972
374.2,348.29,28.056,63.307
369.78,349.04,29.037,65.52
366.11,349.04,29.446,66.441
364.65,348.01,29.434,66.414
361.95,347.85,29.546,66.668
359.14,347.21,29.54,66.655
356,347.71,29.571,66.725
354.08,347.07,29.762,67.154
352.89,346.49,29.644,66.89
348.7,346.6,29.601,66.792
344.41,346.27,29.506,66.578
341.56,346.04,29.095,65.651
339.41,346.68,28.894,65.197
336.34,346.21,28.928,65.274
332.55,345.84,28.653,64.653
329.68,345.94,28.43,64.149
328.22,345.62,28.403,64.089
324.48,345.97,28.365,64.003
321.1,345.5,28.398,64.077
317.9,345.95,28.47,64.241
315.49,345.41,28.442,64.177
314.63,345.24,28.446,64.186
313.67,344.27,28.19,63.609
310.61,345.08,27.767,62.653
308.95,345.06,27.382,61.784
304.87,345.09,26.88,60.653
302.53,345.27,26.861,60.61
302.44,345.05,27.012,60.95
303.16,339.91,26.484,59.759
300.44,344.73,26.982,60.883
301.68,344.25,27.241,61.467
302.04,343.68,27.286,61.569
299.45,344.25,27.841,62.821
297.51,344.32,27.529,62.117
293.6,345.01,27.99,63.158
289.38,344.63,28.365,64.003
285.02,343.73,28.348,63.964
281.48,342.3,28.031,63.248
278.42,343.02,27.885,62.92
275.76,342.38,27.877,62.901
271.83,341.4,27.561,62.189
267.69,342.26,27.509,62.07
267.92,342.74,27.251,61.49
264.96,342.48,27.155,61.273
264.13,344.79,27.88,62.908
262.81,342.91,28.464,64.227
261.93,342.63,28.985,65.401
259.98,342.23,29.385,66.305
257.13,341.56,29.619,66.833
255,341.27,29.757,67.144
254.45,341.54,29.646,66.894
253.26,341.86,29.592,66.771
250.62,341.08,29.702,67.02
248.05,340.87,29.648,66.898
245.32,340.63,29.695,67.004
242.85,340.37,29.937,67.551
241.23,340.38,30.087,67.889
240.12,340.1,30.569,68.977
239.68,340.36,30.925,69.78
238.92,340.31,31.412,70.879
238.68,340.1,31.789,71.729
240.91,338.79,31.918,72.019
242.51,337.82,31.769,71.684
242.11,337.87,31.736,71.609
240.73,337.82,31.393,70.836
237.45,338.42,30.852,69.615
234.43,339.35,30.687,69.242
231.88,339.32,30.271,68.304
228.5,338.84,30.135,67.997
226.63,338.45,30.021,67.74
224.26,338.15,30.012,67.719
221.61,338.18,30.106,67.932
218.89,338.28,30.408,68.612
215.82,338.27,30.516,68.856
214.19,338.7,30.487,68.792
212.95,338.62,30.457,68.724
212,337.91,30.312,68.396
211.21,337.16,30.117,67.957
210.41,336.62,29.9,67.468
763.11,368.89,29.787,67.211
762.91,366.41,30.16,68.052
766.51,365.86,30.317,68.408
770.12,363.4,29.755,67.14
778.69,369.35,29.986,67.661
780.88,367.54,30.298,68.365
782.31,365.11,30.078,67.868
787.58,367,30.256,68.269
791.02,367.27,30.641,69.138
795.51,366.12,30.978,69.899
800.26,364.87,31.063,70.092
805.16,364.39,30.745,69.372
810.23,363.78,30.339,68.457
815.59,362.94,30.034,67.769
820.33,363.95,30.167,68.07
826.55,362.92,30.013,67.722
811.57,363.01,29.878,67.418
783.43,380.91,29.653,66.91
792.7,382.32,30.03,67.759
798.92,381.66,29.992,67.675
806.31,381.26,29.942,67.562
808.25,380.73,30.053,67.812
803.26,394.29,29.942,67.562
807.15,399.19,29.515,66.599
811.61,381.44,29.874,67.408
818.55,381.87,29.918,67.507
825.25,383.84,30.033,67.768
832.02,383.7,30.288,68.342
835.65,381.06,30.493,68.805
807.63,383.61,30.831,69.568
812.71,385.99,30.925,69.779
801.12,414.9,31.053,70.067
802.44,427.89,30.891,69.703
802,431.04,30.711,69.297
803.27,410.38,30.775,69.441
807.28,407.88,30.869,69.652
811.11,423.7,31.009,69.969
815.27,418.1,30.981,69.906
821.28,403.45,30.874,69.664
827.71,436.9,30.744,69.37
834.26,438,30.642,69.142
852.14,435.08,30.513,68.85
847.17,424.05,30.55,68.934
865.31,413.64,30.477,68.768
864.77,404.52,30.372,68.532
871.1,406.48,30.515,68.854
878.56,385.7,30.263,68.286
887.39,386.7,30.169,68.073
897.67,384.27,30.076,67.864
910.53,383.5,30.094,67.903
897.1,372.52,30.261,68.281
878.76,379.46,30.424,68.648
886.11,378.79,30.633,69.12
892.6,380.95,30.798,69.494
901.27,381.53,31.079,70.127
882.68,391.48,30.951,69.838
886.39,420.98,31.033,70.024
891.51,417.84,30.986,69.917
895.32,417.65,30.836,69.578
899.41,415.11,30.798,69.494
904.91,412.37,30.805,69.509
912.24,411.01,30.689,69.247
916.53,406.94,30.734,69.347
932.09,421.17,30.591,69.027
938.54,421.96,30.461,68.734
943.07,421.66,30.262,68.283
946.43,418.28,30.094,67.904
917.55,397.2,30.213,68.173
923.85,437.09,30.091,67.897
938.59,439.46,30.123,67.971
914.88,428.54,30.041,67.785
926.07,427.97,30.136,68
932.81,426.88,29.986,67.66
940.92,429.39,29.991,67.672
946.47,421.69,30.008,67.711
920.13,436.73,30.183,68.106
910.62,400.06,30.23,68.212
920.42,392.39,30.228,68.207
943.77,413.78,30.368,68.522
925.09,439.36,30.337,68.452
908.94,423.42,30.411,68.621
912.03,430.09,30.39,68.573
899.78,443,30.306,68.383
914.82,412.15,30.449,68.705
921.61,413.44,30.467,68.745
924.41,410.06,30.436,68.676
927.39,404.11,30.354,68.491
927.84,404.04,30.434,68.671
936.98,425.63,30.649,69.157
945.86,433.5,30.592,69.027
915.93,430.75,30.537,68.903
912.11,450.71,30.401,68.598
893.7,467.97,30.281,68.326
900.77,470.31,29.993,67.677
911.67,475.1,29.887,67.437
918.05,447.99,29.907,67.482
937.47,434.86,29.807,67.257
941.37,426.95,29.968,67.621
940.54,433.13,29.885,67.433
945.49,434.5,29.923,67.518
913.26,420.61,30.113,67.948
898.26,451.36,30.153,68.037
878.67,461.96,30.123,67.969
892.56,463.83,30.208,68.163
901.31,445.42,30.3,68.369
905.93,444.14,30.379,68.547
912.45,464.2,30.373,68.535
919.09,442.28,30.388,68.567
928.04,426.94,30.518,68.86
932.09,416.78,30.65,69.158
940.02,448.33,30.62,69.09
916.34,439.64,30.893,69.707
899.27,474.57,30.954,69.845
889.38,455.77,30.998,69.945
870.93,438.38,30.971,69.884
883.31,440.54,30.997,69.942
900.05,423,30.983,69.911
907.1,425.33,30.978,69.9
920.38,429.28,30.918,69.763
938.13,432.72,30.914,69.755
927.15,416.02,31.178,70.35
931.61,418.38,31.019,69.991
934.37,417.44,31.107,70.191
932.64,415.52,31.078,70.124
924.57,398.31,31.186,70.368
927.96,398.97,31.178,70.35
18.298,385.07,31.404,70.86
12.878,383.98,31.389,70.826
21.478,376.47,31.401,70.853
24.124,375.43,31.366,70.775
29.65,370.64,31.473,71.016
30.784,380.56,31.738,71.613
33.644,382.24,31.947,72.085
38.132,370.32,31.838,71.84
43.154,373.03,31.912,72.006
46.859,373.91,31.929,72.045
50.947,373.23,31.838,71.839
53.372,373.04,31.818,71.795
56.25,373.83,31.81,71.777
60.546,373.61,31.681,71.485
67.253,374.92,31.595,71.292
71.317,374.14,31.544,71.177
76.516,373.42,31.577,71.252
78.561,373.29,31.621,71.349
80.163,373.1,31.725,71.584
83.973,374.59,31.941,72.071
85.822,374.16,32.035,72.284
87.515,373.7,32.271,72.816
92.206,372.58,32.127,72.491
98.065,370.85,31.943,72.076
109.69,371.23,31.969,72.134
118.13,368.98,31.924,72.034
124.59,368.44,31.799,71.751
128.58,368.03,31.745,71.631
132.02,369.16,31.839,71.841
134.42,371.27,31.883,71.941
135.73,371.39,31.86,71.89
137.56,371.16,31.857,71.882
139.03,371.13,31.793,71.738
141.76,369.23,31.665,71.449
148.59,369.12,31.802,71.757
154.71,367.99,31.701,71.53
161.39,369.33,31.541,71.169
165.74,369.94,31.353,70.745
170.39,372.41,31.371,70.787
175.87,373.55,31.224,70.455
180,374.05,31.032,70.021
184.78,374.95,31.045,70.051
191.17,374.88,30.771,69.432
196.17,376.16,30.692,69.254
202.02,376.68,30.429,68.66
206.38,377.58,30.275,68.312
210.76,377.48,30.234,68.219
212.67,377.59,30.264,68.288
217.67,376.82,30.189,68.119
231.72,375.84,30.011,67.717
241.39,375.82,29.775,67.185
252.13,377.42,29.647,66.896
257.86,378.92,29.512,66.591
263.65,380.59,29.486,66.533
266.34,381.48,29.417,66.376
273.37,381.22,29.535,66.644
276.48,381.23,29.453,66.457
280.59,380.74,29.515,66.599
284.23,381.04,29.688,66.988
286.51,381.31,29.791,67.22
289.55,381.49,29.792,67.223
293.12,381.97,29.943,67.564
294.62,382.37,29.9,67.467
298,382.8,29.762,67.154
303.94,382.92,29.683,66.977
307.42,382.95,29.526,66.622
309.85,383.1,29.438,66.424
312.37,382.73,29.437,66.421
315.53,383.16,29.452,66.456
322.19,382.77,29.661,66.928
326.09,381.77,29.962,67.606
327.96,382.25,30.075,67.862
331.23,382.28,30.343,68.467
335.81,383.37,30.196,68.135
341.18,384.11,30.165,68.064
346.06,384.51,30.22,68.189
350.03,384.98,30.101,67.92
353.87,385.69,30.208,68.161
358.89,387.29,30.398,68.591
367.3,388.51,30.453,68.715
374.09,389.06,30.7,69.272
379.62,389.44,30.975,69.893
381.93,389.33,31.349,70.736
384.89,389.2,31.58,71.259
387.65,388.82,31.779,71.706
389.11,388.77,32.13,72.499
390.79,387.98,32.601,73.562
393.11,387.62,32.769,73.939
395.22,387.62,33.045,74.562
398.5,388.53,33.144,74.786
400.11,388.65,33.083,74.648
402.4,389.88,33.027,74.522
404.33,390.78,33.088,74.66
406.58,390.97,32.959,74.37
410.66,391.69,33.111,74.713
413.02,391.34,33.303,75.145
414.87,391.47,33.45,75.477
416.42,390.72,33.62,75.861
419.6,390.96,33.715,76.074
423.42,390.86,33.859,76.399
425.01,390.11,34.061,76.855
428.15,390.18,34.047,76.825
382.97,402.08,34.055,76.842
385.49,396.24,34.786,78.492
389.37,396.23,35.035,79.053
440.33,400.62,35.345,79.752
441.69,391.97,35.197,79.42
445.43,392.1,35.045,79.076
447.74,391.93,34.629,78.137
451.92,391.99,34.549,77.956
454.1,391.77,34.585,78.038
456.22,391.76,34.756,78.425
457.71,391.26,35.073,79.139
459.39,390.83,35.178,79.376
462.65,391.67,35.082,79.159
465.83,392.16,34.855,78.647
467.84,392.14,34.995,78.962
470.83,392.78,34.841,78.615
472.49,393.36,34.542,77.94
476.47,394.68,34.782,78.483
478.36,394.7,34.823,78.574
480.76,394.48,34.855,78.648
482.91,394.59,34.976,78.921
485.38,394.56,34.993,78.959
488.66,394.94,35.028,79.037
490.27,394.52,35.069,79.13
492.1,394.14,35.085,79.167
494.54,394.12,34.779,78.475
498.04,394.18,34.891,78.728
503.22,395.07,34.696,78.288
505.38,395.74,34.286,77.364
508.56,396.98,34.101,76.945
510.66,397.3,34.236,77.251
514.66,397.66,34.443,77.719
520.37,398.03,34.606,78.086
522.63,398.18,34.683,78.26
524.75,398.21,35.013,79.003
527.77,397.95,34.96,78.884
531.81,397.61,35.465,80.024
538.32,398.1,35.44,79.966
549.39,398.67,35.682,80.514
554.26,398.68,35.966,81.154
558.31,399.28,36.247,81.788
560.79,399.68,36.374,82.075
563.47,400.47,36.13,81.523
567.14,401.52,36.046,81.334
570.53,401.37,35.915,81.038
574.58,401.67,35.902,81.009
577.8,401.01,35.944,81.105
581.35,400.9,35.822,80.829
564.74,420.92,35.523,80.154
589.17,400.45,35.442,79.971
591.57,400.47,35.271,79.586
571.78,421.01,35.447,79.982
596.7,401.5,35.405,79.887
601.69,401.76,35.197,79.419
606.32,402.33,35.337,79.735
609.38,401.82,35.352,79.768
612.51,402.01,35.295,79.639
616.32,402.74,35.214,79.457
621.82,403.46,35.435,79.957
624.92,402.99,35.01,78.996
628.51,402.95,34.817,78.561
631.97,403.13,34.788,78.495
634.85,403.2,34.674,78.239
639.91,402.97,35.088,79.173
641.55,403.16,34.846,78.626
646.03,402.98,34.769,78.452
649.47,403.23,34.654,78.193
653.01,404.22,34.947,78.855
656.91,404.4,35.093,79.183
661.16,404.78,34.927,78.809
663.53,405.21,34.747,78.402
667.15,405.24,34.545,77.947
670.87,406.11,34.955,78.872
676.26,406.11,35.277,79.599
681.02,405.51,35.464,80.021
684.04,405.77,35.177,79.375
687.75,405.17,35.018,79.016
690.99,405.19,35.141,79.292
692.08,404.41,34.773,78.463
699.22,405.11,34.456,77.748
703.51,405.68,34.634,78.148
707.7,406.85,34.849,78.634
710.76,406.79,34.884,78.713
715.81,408.22,34.773,78.462
721.87,408.52,34.498,77.842
724.28,408.77,34.513,77.875
731.42,409.16,34.603,78.078
736.58,408.99,35.041,79.068
738.34,408.23,34.559,77.979
741.12,408.65,34.353,77.514
753.74,406.5,34.195,77.158
741.78,408.05,34.002,76.722
744.14,408.05,33.929,76.558
766.74,408.4,33.722,76.091
769.79,408.88,33.811,76.292
774.26,410.74,34.591,78.051
776.37,410.35,34.619,78.114
764.76,411.74,34.615,78.105
787.03,411.98,34.678,78.247
772.65,413.24,34.779,78.476
775.9,414.17,34.656,78.197
779.39,414.49,34.717,78.336
782.68,412.69,34.834,78.6
789.84,411.27,34.969,78.904
792.88,411.47,35.193,79.409
796.11,411.79,35.347,79.756
798.55,411.43,35.429,79.943
805.57,411.13,35.75,80.667
808.99,410.99,35.904,81.014
810.12,412.36,35.981,81.189
815.1,415.17,35.945,81.106
823,417.91,35.874,80.947
831.67,418.57,35.906,81.019
841.23,418.39,35.844,80.878
848.32,418.95,35.885,80.971
851.78,418.02,35.987,81.201
854.84,416.76,36.166,81.606
858.17,416.75,36.101,81.459
863.99,416.96,36.281,81.865
866.81,416.82,36.265,81.829
869.37,417.03,36.275,81.851
873.88,418.53,36.441,82.226
877.95,419.39,36.38,82.089
885.07,421.2,36.643,82.681
889.06,422.56,36.92,83.307
893,423.46,37.173,83.878
896.8,423.38,37.721,85.115
900.95,423.34,38.108,85.987
905.25,422.81,38.447,86.753
908.51,421.94,38.516,86.908
910.68,421.08,38.472,86.808
915.66,419.61,38.55,86.985
921.99,419.25,38.861,87.687
926.54,419.52,39.472,89.065
929.68,418.49,39.598,89.349
932.47,420.35,39.801,89.807
932.51,420.39,39.985,90.223
928.99,416.85,39.479,89.081
934.53,413.71,38.873,87.714
938.59,414.19,38.214,86.226
942.74,418.82,37.756,85.193
943.82,421.39,37.784,85.255
944.98,425.41,38.27,86.354
931.07,426.99,38.043,85.841
932.68,455.06,38.122,86.02
929.52,456.37,38.121,86.018
934.01,455.52,37.82,85.337
934.57,455.74,37.79,85.269
935.53,455.69,37.669,84.996
934.77,456,37.753,85.187
932.99,457.18,37.745,85.169
932,455.83,37.606,84.855
932.94,455.55,37.674,85.008
931.47,456.29,37.71,85.089
933.97,454.1,37.846,85.397
930.27,454.81,37.964,85.663
932.07,452.39,37.865,85.44
932.92,453.75,38.007,85.76
933.25,453.33,37.96,85.654
933.5,452.26,38.082,85.929
933.47,452.55,38.01,85.767
934.4,452.09,38.082,85.928
934.36,452.34,38.093,85.954
933.8,452.59,38.029,85.809
933.32,452.86,38.037,85.828
934.07,452.93,38.083,85.93
936.08,453.14,38.115,86.002
935.3,453.24,38.124,86.023
935.17,452.43,38.044,85.843
934.98,452.44,38.071,85.905
935.61,452.86,38.132,86.041
937.58,453.99,38.05,85.855
937.11,453.39,38.049,85.854
937.53,455.21,38.029,85.81
936.41,457.5,38.081,85.927
931.67,452.97,37.934,85.594
933.98,454.09,37.876,85.463
933.43,453.82,37.63,84.909
933.05,452.08,37.664,84.985
932.33,454.54,37.542,84.71
933.55,453.7,37.416,84.425
932.29,454.77,37.305,84.175
935.74,454.65,37.179,83.891
938.3,455.57,37.025,83.544
938.24,455.63,36.9,83.261
938.8,455.14,36.819,83.079
108.57,388.92,36.855,83.16
146.36,379.75,36.926,83.32
148.24,380.47,37.083,83.674
150.03,380.8,37.325,84.221
152.86,380.17,37.581,84.798
155.62,380.05,37.757,85.195
158.04,379.84,37.685,85.033
160.99,379.91,37.674,85.009
162.5,379.35,37.72,85.111
163.95,379.78,37.793,85.276
164.4,379.65,37.752,85.184
165.43,379.46,37.66,84.976
167.94,380.42,37.751,85.182
171.4,381.62,38.317,86.459
171.65,380.76,38.328,86.484
173.67,381.1,38.368,86.573
175.04,380.91,38.659,87.23
176.92,381.85,38.515,86.905
179.55,383.05,38.681,87.28
180.67,383.49,38.635,87.175
182.2,383.61,38.506,86.885
182.88,383.93,38.334,86.498
184.98,384.32,38.345,86.523
187.83,386.53,37.832,85.365
188.39,389.13,37.777,85.24
189.46,391.06,37.348,84.273
190.44,393.22,37.217,83.976
192.94,395.17,37.228,84.002
199.01,396,37.335,84.243
201.81,396.73,37.517,84.655
205.94,397.75,38.066,85.893
