212.5,221.5,29,72
229.14,217.87,28.783,71.461
245.57,221.09,29.003,72.009
263.69,217.55,29.069,72.171
281.49,215.69,29.311,72.773
297.28,213.99,28.834,71.587
322.4,219.04,28.845,71.616
338.59,217.17,29.126,72.312
355.83,215.84,29.135,72.334
370.94,217.73,29.5,73.241
390.12,217.08,29.659,73.637
407.29,216.72,29.778,73.932
423.34,214.77,30.224,75.039
435.66,214.59,30.266,75.143
435.56,214.73,30.146,74.845
436.72,216.88,29.796,73.976
438.18,218.02,29.796,73.977
438.4,217.28,29.774,73.92
438.72,216.39,29.829,74.058
438.66,216.73,29.958,74.377
438.95,219.17,29.905,74.248
438.67,220.58,29.874,74.17
438.61,219.61,29.924,74.295
439.22,218.72,30.093,74.714
439.13,218.5,30.228,75.048
439.65,220.34,30.201,74.981
440.49,220.46,30.074,74.667
440.83,220.96,30.054,74.616
441.88,221.74,29.856,74.126
442.17,222.97,29.806,74
442.34,223.61,29.753,73.87
443.24,223.51,29.598,73.485
443.77,223.01,29.522,73.295
444.74,224.49,29.309,72.766
444.01,225.9,29.666,73.654
445.81,226.27,29.677,73.682
446.86,225.6,29.859,74.132
446.03,226.2,29.89,74.21
445.88,228.22,29.962,74.389
445.76,228.22,30.165,74.893
445.04,228.44,30.172,74.909
445.36,227.56,30.173,74.913
446.03,227.07,30.373,75.408
446.62,228.07,30.728,76.291
446.54,230.09,30.849,76.591
448.07,229.69,31.204,77.473
449.65,228.15,31.656,78.595
448.4,228.6,31.89,79.175
449.49,229.52,32.355,80.33
449.79,229.56,32.887,81.651
450.33,228.56,33.385,82.887
451.14,228.61,33.634,83.506
450.79,228.9,33.84,84.017
451.5,228.32,34.307,85.175
455.85,217.67,34.845,86.513
451.66,228.83,35.103,87.153
451.61,227.84,35.387,87.856
452.64,227.63,35.47,88.064
454.09,229.26,35.736,88.724
452.41,230.6,35.89,89.105
453.88,230.17,36.21,89.901
453.56,229.86,36.438,90.466
444.95,230.55,36.525,90.683
428.54,231.13,36.685,91.079
412.53,233.45,36.792,91.345
401.53,234.03,36.743,91.224
403.8,236.44,36.633,90.951
404.11,236.61,36.673,91.05
405.01,238.03,36.543,90.727
406.3,238.99,36.281,90.077
407.62,239.94,35.996,89.37
408.61,239.02,35.932,89.21
409.52,239.71,35.848,89.003
410.13,241.37,35.765,88.795
411.51,241.33,35.774,88.818
412.7,241.19,35.863,89.04
413.09,242.06,35.81,88.907
413.83,243.66,35.962,89.285
413.32,244.31,36.031,89.457
412.58,244.41,36.178,89.821
413.19,244.93,36.333,90.207
413.19,244.7,36.336,90.215
413.83,245.61,36.266,90.04
414.89,247.26,36.186,89.841
417.18,247.24,36.306,90.138
417.34,246.9,36.437,90.465
418.97,247.34,36.636,90.958
420.08,248.66,36.754,91.251
421.08,250.19,36.928,91.683
421.89,250.19,37.021,91.915
412.66,251.14,37.152,92.241
397.75,251.41,37.111,92.137
382.81,253.41,37.103,92.117
368.65,256.1,36.98,91.812
352.91,258.81,37.01,91.886
338.86,258.93,37.213,92.39
320.05,260.05,37.393,92.838
311.35,262.21,37.473,93.036
313.42,263.67,37.506,93.119
315.13,263.14,37.651,93.478
316.93,262.85,37.93,94.172
318.86,262.98,37.971,94.272
321.3,263.94,38.019,94.392
323.19,263.65,38.151,94.72
325.73,262.59,38.243,94.947
327.24,261.86,38.409,95.361
328.97,261.62,38.597,95.828
329.69,253.34,38.77,96.257
330.58,243.65,38.917,96.621
331.27,230.96,39.225,97.386
333.33,219.45,39.234,97.409
334.85,215.43,39.165,97.237
336.39,218.43,39.174,97.26
338.17,219.67,39.237,97.415
339.81,219.69,39.178,97.27
341.06,219.42,39.313,97.605
343.49,220.53,39.104,97.086
344.61,218.88,39.159,97.223
344.91,209.83,39.444,97.93
344.97,198.74,39.762,98.719
345.66,188.69,40.051,99.436
346.83,187.84,40.215,99.843
348.24,189.49,40.306,100.07
349.17,188.8,40.39,100.28
350.14,188.37,40.298,100.05
362.69,188.09,40.267,99.972
385.94,189.83,40.162,99.713
403.74,191.58,40.237,99.899
418.7,191.98,40.454,100.44
437.26,190.82,40.558,100.7
455.72,190.57,40.548,100.67
473.53,191.07,40.399,100.3
492.74,192.34,40.398,100.3
509.68,191.77,40.459,100.45
528.9,191.64,40.657,100.94
547,191.49,40.745,101.16
569.83,193.7,41.011,101.82
588.28,193.84,41.246,102.4
