304.5,279.5,124,83
304.67,277.53,124.02,83.017
304.28,277.92,123.47,82.642
304.12,278.2,123.12,82.409
303.45,277.98,124.62,83.417
303.61,278.11,124.62,83.413
303.65,278.33,125.09,83.731
303.89,278.81,125.72,84.152
303.56,278.43,125.97,84.318
304.52,278.96,125.89,84.267
304.23,278.23,126.32,84.556
304.14,277.38,127.02,85.02
304.61,276.74,127.08,85.061
304.19,275.93,127.9,85.613
304.69,275.6,127.27,85.192
304.49,275.19,127.65,85.443
304.98,275.13,126.79,84.868
305.15,274.8,127.24,85.171
305.12,274.52,127.82,85.555
305.5,274.51,127.54,85.369
305.4,274.37,127.44,85.301
305.15,274.13,127.8,85.544
305.05,273.71,127.98,85.664
305.3,274.11,126.27,84.517
304.9,272.95,126.66,84.782
304.61,275.54,124,83
305.44,276.97,119.81,80.195
305.29,276.73,119.07,79.699
305.83,275.7,116.37,77.891
305.66,277.65,115.76,77.483
306.52,278.91,117.32,78.53
305.91,278.42,119.76,80.162
306.02,279.55,120.76,80.832
306.1,278.83,122.49,81.988
305.5,279.24,124.8,83.534
304.51,277.76,126.06,84.378
304.26,277.64,126.79,84.871
303.06,276.69,127.18,85.125
302.75,275.4,126.76,84.848
302.27,274.21,126.8,84.877
302.42,273.35,126.39,84.601
302.56,273.29,126.52,84.686
303,271.55,126.05,84.37
303.4,271.56,124.69,83.461
303.47,270.41,124.24,83.163
303.42,268.6,123.04,82.357
303.78,267.21,121.06,81.035
304.27,268.14,121.17,81.105
304.26,267.33,120.22,80.468
304.23,265.8,119.49,79.98
304.43,265.11,120.14,80.417
304.14,265.27,119.69,80.117
304.23,265.01,119.68,80.108
304.42,264.98,119.65,80.087
304.61,265.47,119.52,80.002
304.76,265.46,120.07,80.373
304.94,265.59,120.07,80.369
305.1,265.89,119.8,80.19
305.17,265.76,120.87,80.904
305.14,266.17,120.55,80.692
304.86,266.06,121.32,81.205
305.02,266.21,120.69,80.781
305.28,266.31,120.24,80.483
305.34,266.42,119.99,80.315
305.31,266.61,120.79,80.853
305.51,266.45,120.59,80.718
305.69,266.76,120.46,80.63
306.03,267.1,120.59,80.72
305.91,266.69,121.33,81.21
305.5,266.67,122.02,81.675
305.98,268.51,121.99,81.652
306.37,270.19,121.77,81.507
306.87,272.24,121.61,81.399
307.29,273.89,122.57,82.04
307.13,276,122.86,82.235
308.13,276.61,122.11,81.735
308.65,276.68,123.24,82.494
307.79,276.57,124.45,83.298
306.77,276.61,125.93,84.292
305.27,276.48,126.86,84.914
304.28,274.67,128.44,85.971
303.42,273.9,129.37,86.595
304.38,271.58,130.16,87.126
304.21,269.68,130.85,87.583
303.84,269.58,131.14,87.779
303.59,269.09,131.38,87.938
305.04,270.97,132.32,88.572
305.2,272.24,134.22,89.84
305.93,274.29,134.05,89.724
306.21,274.45,134.52,90.044
306.27,274.56,134.35,89.926
304.4,272.67,135.24,90.52
304.67,273.3,135.71,90.839
304.72,273.66,135.71,90.84
304.64,273.05,135.83,90.915
303.31,271.33,136.72,91.514
303.75,270.9,135.92,90.98
305.6,270.78,136.18,91.152
309.61,272.36,136.62,91.449
313.09,273.4,135.47,90.676
320.46,275.32,131.37,87.936
320.47,278.47,126.82,84.884
321.39,279.04,123.21,82.47
322.17,282.03,121.93,81.613
321.04,282.05,119.57,80.038
320.49,286.73,116.78,78.166
320.84,288.85,114.57,76.689
322.42,287.76,113.16,75.743
324.54,289.77,114.38,76.562
324.03,287.76,114.11,76.381
323.48,287.99,113.12,75.714
323.95,287.8,113.68,76.091
323.67,287.41,114.24,76.466
323.01,286.56,115.01,76.981
322.71,286.55,114.47,76.62
322.41,286.46,113.49,75.965
321.95,286.82,113.52,75.982
322.38,286.89,113.75,76.142
322.47,286.68,114.6,76.709
322.71,286.78,114.64,76.733
322.67,287.21,113.99,76.301
324.43,287.29,113.92,76.255
325.42,287.94,113.83,76.192
327.9,288.8,113.83,76.194
329.01,288.5,113.34,75.867
330.56,288.69,112.42,75.249
333.8,288.97,110.57,74.014
336.63,292.4,110.85,74.197
339.8,293.95,110.91,74.235
341.55,292.57,110.94,74.26
344.74,291.88,114.35,76.542
350.64,291.21,116.15,77.747
351.58,290.76,116.67,78.094
356.06,287.34,117.92,78.933
357.58,285.35,118.8,79.519
358.47,283.72,120.19,80.452
359.77,280.92,122.06,81.703
363.4,281,122.25,81.831
365.96,280.97,122.56,82.033
366.61,282.48,123.15,82.431
366.38,285.33,124.23,83.152
366.7,286.78,125.46,83.976
366.04,291.37,126.25,84.509
367.18,289.4,126.49,84.669
368.79,290.16,126.27,84.522
368.85,291.4,125.5,84.007
367.07,292.88,124.67,83.445
364.58,292.69,125.11,83.744
363.68,290.19,124.25,83.165
365.05,283.87,122.31,81.867
363.01,287,121.83,81.545
361.93,285.43,121.1,81.057
366.43,287.55,119.07,79.698
353.72,291.02,120.65,80.76
356.46,292.89,120.27,80.501
354.5,293.21,119.99,80.318
350.69,294.01,119.51,79.997
349.2,291.96,120.15,80.42
337.64,293.64,120.07,80.367
331.52,292.7,120.76,80.83
329.29,297.1,121.22,81.142
331.54,295.28,120.78,80.842
332.29,301.18,120.89,80.919
331.66,304.74,121.6,81.392
333.01,309.29,121.57,81.372
330.38,281.18,120.7,80.794
327.45,280.04,120.09,80.385
337.62,319.11,120.75,80.826
339.4,285.49,121.32,81.204
285.84,286.96,120.78,80.843
274.72,291.34,121.14,81.089
281.35,292.64,121.25,81.162
334.83,315.31,120.2,80.458
328.46,315.19,120.52,80.671
316.61,351.62,120.82,80.871
306.87,346.5,121.75,81.495
303.62,315.72,122.46,81.969
313.85,312.11,122.68,82.117
314.29,308.69,121.85,81.562
306.69,307.02,121.58,81.382
303.81,305.45,121.75,81.492
301.12,301.63,120.89,80.922
295.46,300.17,120.22,80.473
296.41,297.8,120.05,80.354
295.74,296.4,120.28,80.512
299.24,291.66,120.25,80.491
298.59,288.14,121.36,81.233
297.7,285.59,120.97,80.973
302.96,284.46,120.79,80.853
297.97,287.66,121.42,81.27
301.94,286.21,123.15,82.433
308.68,290.79,123.88,82.919
322.3,289.95,124.96,83.64
322.88,292.18,125.66,84.108
327.13,293.68,125.43,83.955
332.86,293.6,124.9,83.603
343.34,294.86,124.67,83.448
353.3,295.29,124.27,83.183
360.97,295.76,123.83,82.885
367.02,297.84,123,82.332
375.34,297.86,122.64,82.087
382.31,300.42,121.81,81.532
389.82,299.83,120.65,80.759
398.97,298.82,119.45,79.953
369.09,318.58,119.42,79.937
418.23,296.44,118.98,79.643
425.05,285.9,119.63,80.077
368.88,291.25,120.21,80.466
361.67,291.19,120.61,80.728
336.99,293.63,121.15,81.093
336.03,292.46,121.56,81.368
335.66,292.37,121.61,81.397
334.3,292.94,121.74,81.485
334.88,292.25,122.24,81.82
334.24,292.06,122.8,82.199
333.26,291.52,122.4,81.93
332.94,291.73,122.69,82.126
331.96,293.03,123.29,82.524
332.16,293.01,123.88,82.918
333.82,291.5,125.16,83.777
333.1,290.91,127.09,85.069
334.93,290.05,129.43,86.632
335.41,289.76,131.23,87.837
333.17,290.63,131.81,88.226
333.65,290.04,132.8,88.888
331.21,291.64,131.91,88.296
331.35,291.24,130.59,87.409
331.91,291.91,130.2,87.151
332.71,291.03,131.09,87.749
332.35,290.91,131.3,87.883
332.66,290.47,131.12,87.768
332.86,289.97,131.02,87.701
333.13,290.05,130.7,87.482
333.54,290.04,131.02,87.7
333.26,289.74,130.94,87.642
332.7,289.99,130.92,87.634
332.7,290.09,131.03,87.705
333.08,290.44,130.74,87.511
332.93,290.41,130.82,87.566
333,290.17,131.44,87.981
333.2,290.27,131.61,88.096
333.46,290.28,131.51,88.025
333.2,290.18,131.34,87.915
333.75,290.23,131.5,88.019
333.51,289.93,131.5,88.022
333.45,290.11,131.57,88.07
333.42,289.77,131.64,88.112
333.3,290.17,131.81,88.226
333.45,290.35,131.99,88.347
333.42,290.1,131.88,88.277
333.3,290.02,131.92,88.301
332.98,289.7,131.9,88.285
332.83,289.67,131.91,88.294
332.66,289.74,131.88,88.275
332.69,289.45,132,88.352
332.65,289.44,131.7,88.153
332.4,289.6,131.66,88.127
332.49,289.45,131.82,88.237
332.81,289.77,131.88,88.274
332.53,289.61,131.65,88.118
332.53,289.57,131.64,88.113
332.41,289.57,131.48,88.004
331.95,289.33,131.47,88.002
332.11,289.17,131.39,87.946
332.39,289.55,131.49,88.011
332.23,289.18,131.37,87.936
332.32,289.43,131.37,87.933
332.54,289.17,131.48,88.008
332.17,288.62,131.59,88.08
332.16,288.65,131.83,88.241
332.46,288.87,131.58,88.076
332.32,288.58,131.62,88.099
332.47,288.5,131.64,88.117
332.43,288.36,131.52,88.03
331.99,288.13,131.48,88.009
331.95,288,131.52,88.03
332.17,288.18,131.39,87.945
332.38,288.29,131.39,87.945
332.57,288.08,131.61,88.092
332.66,288.09,131.72,88.166
333.06,288.31,131.91,88.293
333.7,288.35,131.56,88.057
333.3,287.98,131.61,88.097
333.43,288.22,132.42,88.636
333.71,288.52,132.62,88.772
332.97,288.23,132.82,88.902
333.3,289.21,132.93,88.977
333.61,288.75,131.78,88.205
333.61,288.93,131.87,88.268
333.85,289.03,131.08,87.74
333.88,288.98,131.28,87.871
334.09,289.13,131.4,87.953
333.88,289.02,131.65,88.118
333.8,288.98,131.8,88.219
333.89,289.35,131.82,88.232
333.95,289.24,131.91,88.293
333.98,289.14,131.84,88.247
333.69,288.78,132.18,88.473
333.2,289.21,133.26,89.195
333.2,288.43,132.87,88.937
333.35,288.82,133.09,89.086
332.95,288.7,132.13,88.441
332.41,288.35,132.26,88.527
332.87,288.42,131.13,87.774
332.23,288.28,131.07,87.729
332.23,287.73,130.54,87.38
331.96,287.52,130.23,87.172
331.67,287.09,129.96,86.99
331.85,287.12,128.78,86.202
331.26,287.03,129.34,86.571
331.95,286.88,129.06,86.384
332.67,287,129.26,86.524
333.08,286.82,129.37,86.591
333.23,287.11,129.44,86.644
333.47,287,129.5,86.681
333.32,287.05,129.89,86.946
333.49,287.12,129.57,86.725
333.61,287.4,129.64,86.775
334.08,287.76,128.68,86.131
333.62,288.05,128.78,86.199
333.47,288.77,127.74,85.5
333.71,289.26,126.34,84.563
333.44,289.46,125.49,83.997
333.36,289.96,123.94,82.962
332.62,290.15,122.67,82.11
332.73,290.59,121.46,81.297
332.2,290.18,120.67,80.773
332.19,290.29,119.51,79.997
332.4,290.53,118.55,79.352
332.48,290.96,117.88,78.904
333.16,291.73,116.66,78.086
333.02,291.64,116.3,77.845
332.7,291.56,115.58,77.367
333.37,290.71,115.77,77.489
333.36,289.93,116.15,77.747
333.19,289.62,117.65,78.752
334.07,289.47,120.3,80.526
333.53,287.98,121.56,81.37
333.75,287.46,123.12,82.408
333.33,286.5,124.73,83.492
333.4,286.49,125.22,83.816
333.58,286.22,125.23,83.823
333.27,286.31,125.64,84.1
332.92,286.81,124.65,83.433
332.1,287.18,123.79,82.861
332.35,289.23,122.27,81.844
331.77,289.57,122,81.66
331.66,289.72,121.59,81.387
331.6,290,122.26,81.837
331.12,289.57,123.26,82.506
330.73,290.2,124.06,83.038
330.43,289.41,124.03,83.021
329.79,289.4,125.52,84.017
330.17,289.78,126.2,84.474
329.92,289.84,126.67,84.786
329.85,289.41,127.12,85.088
330.33,289.23,127.46,85.318
330.55,288.95,127.21,85.146
330.51,288.48,128.13,85.763
330.27,288.32,128.48,86.001
331.07,287.84,129.54,86.708
330.86,287.57,129.62,86.76
331.24,287.52,129.34,86.572
331.22,287.43,129.22,86.493
331.2,287.64,128.9,86.28
331.62,287.54,128.63,86.097
331.35,287.59,128.89,86.271
331.89,287.78,128.72,86.162
331.38,287.52,129.26,86.522
331.59,287.44,129.38,86.599
331.2,286.96,130.41,87.293
330.8,286.76,131.12,87.766
330.14,286.72,130.55,87.383
329.51,286.06,132.52,88.704
329.04,286.06,133.23,89.175
328.86,285.63,132.97,89.007
328.05,285.2,135.02,90.378
328.29,285.27,135.92,90.98
327.88,284.38,136.45,91.334
327.93,284.28,136.65,91.466
327.62,284.17,138.49,92.7
327.55,284.11,139.24,93.203
327.32,283.42,139.7,93.511
327.35,282.84,140.8,94.248
327.03,282.46,141.26,94.553
326.46,282.56,140.99,94.373
326.25,282.66,141.18,94.499
326.06,282.52,141.89,94.972
325.78,282.15,142.3,95.248
325.52,282.29,142.88,95.634
325.82,281.52,142.55,95.417
325.28,282.03,141.59,94.775
325.18,281.83,142.7,95.517
325.43,282.27,141.95,95.016
325.15,281.86,142.81,95.593
325.53,282.55,141.68,94.833
325.61,282.81,141.32,94.593
325.4,282.65,141.3,94.583
325.47,282.69,141.41,94.651
325.9,282.86,140.99,94.375
325.63,283.01,141.36,94.623
325.4,282.54,142.22,95.192
325.6,282.21,142.67,95.496
325.75,281.68,142.94,95.675
325.38,280.42,143.9,96.32
324.43,279.06,144.94,97.015
323.73,276.78,145.06,97.096
323.61,274.5,146.76,98.232
322.73,271.81,148.03,99.083
323.56,274.13,148.53,99.42
324.45,278.69,148.34,99.295
325.53,281.73,145.45,97.36
327.12,281.74,143.6,96.116
327.59,286.16,142.67,95.5
328.15,285.71,141.62,94.794
328.37,286.86,139.77,93.557
329.17,286.7,138.76,92.878
329.63,286.68,138.21,92.509
329.65,287.19,137.7,92.169
330.42,287.76,136.57,91.415
330.98,287.5,134.99,90.353
331.65,289.14,133.57,89.409
332.25,288.11,132.49,88.682
332.51,288.25,131.6,88.088
332.83,288.36,130.9,87.616
332.77,288,130.78,87.541
332.32,288.08,130.76,87.526
332.39,287.87,131,87.685
332.67,287.79,130.45,87.316
331.97,287.81,131.24,87.845
332.12,288.32,131.67,88.135
332.01,288.17,132.43,88.645
331.18,287.68,133.49,89.351
331.08,287.74,133.72,89.508
330.39,286.94,133.13,89.111
330.34,286.13,133.2,89.158
330.42,286.28,132,88.356
330.2,285.9,131.98,88.344
330.45,286.28,131.71,88.164
330.58,286.37,131.42,87.963
330.24,286.02,131.26,87.86
330.69,286.57,131.42,87.967
330.44,286.92,131.48,88.005
330.05,286.79,131.55,88.053
330.11,287.35,131.12,87.768
330.47,287.78,130.92,87.63
330.29,287.09,130.93,87.638
330.37,286.88,130.76,87.528
330.58,287.42,130.67,87.463
330.67,287.8,130.5,87.35
330.87,287.47,130.11,87.092
330.84,288.18,129.55,86.717
331.26,288.79,128.05,85.714
330.95,288.7,127.19,85.136
331.08,289.96,125.59,84.062
331.49,290.92,123.76,82.839
331.16,291.78,122.74,82.157
330.93,293.06,121.54,81.351
331.01,294.7,119.99,80.318
330.53,295.48,119.43,79.942
330.47,295.66,117.78,78.834
329.83,296.52,117.62,78.732
329.34,296.75,117.1,78.379
328.49,297.04,116.91,78.256
328.5,295.72,117.37,78.565
327.97,294.44,119.78,80.174
327.44,290.82,122.04,81.688
326.92,290.26,125.37,83.92
326.71,289.58,127.08,85.063
325.46,293.64,126.87,84.921
325.15,293.14,127.81,85.552
326.22,290.87,129.07,86.393
326.48,290.42,130.19,87.145
326.68,290.93,129.97,86.994
327.39,291.07,127.91,85.614
327.54,291.9,126.69,84.799
328.06,292.2,127.29,85.204
328.97,291.98,126.66,84.777
329.25,292.5,126.81,84.883
328.34,292.56,125.94,84.301
328.3,292.55,125.44,83.966
328.71,292.94,124.74,83.493
329.03,292.92,125.01,83.676
328.94,292.61,125.37,83.918
329.87,292.73,124.51,83.338
329.43,292.05,124.91,83.608
329.31,290.97,126.49,84.664
328.98,290.24,127.83,85.561
328.71,288.75,129.79,86.872
328.87,288.71,130.33,87.235
328.88,288.46,130.89,87.611
327.9,288.71,131.55,88.054
327.51,288.8,131.03,87.703
328.09,288.6,131.47,88
327.75,288.26,131.34,87.912
327.49,289.04,130.59,87.414
327.67,289.46,129.49,86.675
326.83,287.02,128.56,86.051
327.3,287.73,129.09,86.404
327.93,288.93,129.55,86.713
328.06,288.83,130.02,87.027
327.43,288.54,130.34,87.244
327.28,288.73,130.59,87.413
327.54,288.76,130.43,87.307
327.87,288,129.85,86.915
327.88,288.38,129.42,86.626
327.84,288.33,129.42,86.628
327.81,288.55,129.58,86.737
328.36,288.79,129.68,86.801
328.25,288.81,129.25,86.516
328.02,288.95,129.31,86.556
328.19,289.34,128.6,86.08
327.88,289.19,128.76,86.185
327.61,288.71,129.03,86.368
327.87,288.62,129.85,86.916
328.57,287.47,129.61,86.756
328.53,286.78,130.96,87.658
328,286.22,131.51,88.025
327.66,285.94,132.38,88.612
328.33,286.44,132.32,88.566
328.06,286.24,132.99,89.016
327.59,285.96,133.13,89.112
327.41,286.05,132.45,88.655
327.2,286.23,132.4,88.621
327.18,286.33,132.43,88.644
327.63,286.13,131.61,88.092
327.15,285.78,131.95,88.323
326.66,285.25,132.72,88.839
326.92,285.26,132.98,89.009
326.75,285.23,133.23,89.179
327.33,285.55,131.2,87.818
326.72,285.62,131.84,88.247
326.89,286.06,131.18,87.808
326.91,285.87,131.41,87.959
326.77,285.47,131.66,88.129
326.78,285.6,131.66,88.128
326.42,285.24,132.32,88.569
326.71,285.18,132.72,88.834
327.06,285.28,131.76,88.193
325.99,284.88,133.55,89.394
327.15,285.2,132.05,88.388
326.62,284.91,132.12,88.432
326.69,284.92,132.32,88.571
327.1,284.82,132.93,88.978
327.15,284.67,133.81,89.564
326.45,284.37,134.64,90.119
325.66,283.88,138.37,92.619
325,283.38,140.91,94.32
324.54,282.6,142,95.046
324.47,281.88,143.18,95.838
324.57,282.02,143.99,96.382
324.8,282.07,144.06,96.428
324.72,281.69,144.4,96.657
324.63,281.46,144.65,96.823
324.47,281.37,144.72,96.87
324.32,281.45,144.73,96.874
324.25,281.6,144.7,96.856
324.2,281.68,144.66,96.832
324.61,282.01,144.28,96.577
324.63,282.32,143.13,95.808
324.32,282.5,143.04,95.742
324.48,282.71,142.47,95.363
324.61,282.93,141.54,94.739
324.95,282.92,140.2,93.844
325.97,282.96,138.05,92.407
326.65,283.2,135.35,90.597
327.16,283.3,133.93,89.644
326.66,283.46,135.54,90.725
326.31,283.67,136.72,91.514
325.31,282.84,140.08,93.763
324.88,282.64,142.35,95.284
324.36,281.71,143,95.718
322.27,281.77,145.79,97.588
322.18,281.61,147.22,98.543
322.16,281.81,146.85,98.297
320.92,281.93,148.95,99.698
321.13,281.91,150.04,100.43
321.2,281.42,149.91,100.34
321.18,281.57,149.86,100.31
321.07,281.58,149.74,100.23
321.54,281.64,149.58,100.12
321.72,281.98,149.16,99.84
321.62,282.5,148.95,99.702
322.51,282.4,146.7,98.191
323.19,282.66,144.72,96.871
323.27,282.41,144.29,96.582
322.87,282.41,143.97,96.364
323.59,282.62,143.44,96.013
323.4,282.96,143.35,95.95
323.79,282.85,143.18,95.84
324.19,283.14,143.07,95.767
324.48,283.33,142.52,95.398
325.12,283.46,142.39,95.307
324.87,283.18,143.31,95.926
324.83,283.19,143.55,96.086
324.67,283.18,143.81,96.258
323.84,282.81,145.54,97.42
323.31,282.91,146.77,98.243
323.76,283.06,145.96,97.698
323.81,283.13,145.41,97.328
324.48,284.2,143.53,96.072
325.15,285.11,141.21,94.521
326.29,287.25,138.01,92.378
326.51,287.85,135.68,90.821
326.5,288.64,134.69,90.156
326.1,288.37,134.84,90.259
326.18,289.01,133.83,89.579
325.74,289.58,133.29,89.216
326.04,289.47,132.62,88.773
326.17,289.56,132.24,88.517
326.39,289.62,132.5,88.688
326.75,289.46,132.32,88.566
326.47,288.71,133.09,89.081
326.57,288.44,133.05,89.058
326.82,289.04,133.02,89.038
326.64,289.27,133.42,89.305
326.58,289.79,133.7,89.492
326.13,289.72,133.56,89.401
326.5,289.43,133.48,89.347
326.54,289.61,133.51,89.368
325.92,289.81,133.06,89.062
325.97,289.55,132.64,88.783
326.23,288.9,132.39,88.615
325.95,289.6,132.42,88.635
325.92,288.11,133.22,89.172
324.98,287.91,133.08,89.077
325.11,287.77,133.15,89.125
325.25,287.23,133.03,89.041
324.86,287.96,132.63,88.779
324.25,288.08,132.29,88.55
325.03,288.36,131.91,88.297
325.1,288.17,130.44,87.314
324.8,287.47,130.05,87.052
325.07,287.58,130.36,87.256
325.31,287.47,130.34,87.241
325.94,287.24,131.9,88.286
326.39,286.62,132.4,88.624
326.16,285.92,132.3,88.557
326.33,285.88,132.76,88.867
325.76,285.36,132.74,88.848
326.28,285.56,133.29,89.219
326.73,285.57,133.5,89.356
327.53,286.08,134.16,89.797
326.43,285.57,134.17,89.811
326.42,285.18,134.19,89.82
326.6,284.75,134.68,90.15
327.32,285.16,134.83,90.251
326.56,284.49,135.34,90.589
327.4,284.85,135.51,90.705
327.62,284.35,136.16,91.138
328.47,284.81,136.76,91.538
327.86,285.13,137.35,91.934
328.61,285.1,137.21,91.844
328.79,285.25,137.21,91.845
329.48,285.78,137.61,92.109
328.83,285.03,137.35,91.933
329.1,285.44,137.07,91.747
329.01,285.2,137.26,91.876
330.1,286.19,137.01,91.711
329.43,285.52,137.12,91.781
329.49,285.97,136.86,91.61
330.57,286.25,136.86,91.605
330.89,285.93,136.84,91.593
330.8,285.87,137.16,91.807
329.74,286.03,137.12,91.782
328.35,285.17,137.05,91.732
327.6,284.93,136.88,91.621
328.31,285.94,137.81,92.243
330.35,286.84,137.45,92
329.47,286.68,138.83,92.927
328.68,286.89,140.38,93.966
328.59,286.46,141.12,94.46
329.12,287.86,141.67,94.829
329.61,287.84,142.23,95.201
329.02,286.75,142.57,95.433
329.01,286.5,142.61,95.458
329.26,287.97,142.04,95.078
329.32,286.07,142.96,95.689
330.07,287.86,142.76,95.555
329.59,287.54,143.58,96.105
329.42,287.93,144.15,96.486
329.54,287.87,144.35,96.623
330.22,287.78,144.39,96.646
330.83,287.73,145.17,97.171
330.81,287.67,146.19,97.855
331.32,288.27,147.79,98.921
330.99,289.03,148.69,99.527
330.61,288.78,150.06,100.44
330.41,288.26,149.87,100.32
329.58,288.14,150.6,100.8
328.2,288.12,151.07,101.12
329.2,288.84,152.86,102.32
327.97,288.72,153.99,103.07
327.3,288.33,154.8,103.61
328,289,155.26,103.93
326.59,288.05,156.26,104.59
325.21,285.77,157.66,105.53
325.8,287.56,157.91,105.7
326.05,287.38,158.01,105.76
326.47,287.9,158.09,105.82
325.59,287.46,158.59,106.15
325.76,288.54,159.18,106.55
326.24,288.45,161.11,107.84
325.73,288.08,162.38,108.69
326.77,289.62,163.04,109.13
325.39,287.28,164.31,109.98
325.07,289.49,167.49,112.11
323.34,288.14,169.36,113.36
323.28,286.54,171.2,114.59
322.23,286.72,172.74,115.62
321.04,284.84,174.18,116.59
320.82,283.73,175.51,117.48
321.41,284.79,176.73,118.29
320.83,283.47,178.25,119.31
319.92,282.19,179.73,120.31
321.97,284.1,181.39,121.42
321.31,285.93,181.64,121.58
319.92,288.92,180.82,121.03
321.25,291.93,181.25,121.32
321.74,293.46,181.53,121.51
323.02,294.74,181.9,121.76
324.5,295.39,181.94,121.78
320.93,295.25,181.79,121.68
323.05,297.25,181.29,121.35
322.88,298.56,180.49,120.81
320.3,297.99,179.61,120.23
318,297.28,178.06,119.19
319.59,299.35,176.4,118.08
318.33,299.17,174.53,116.82
318.98,297.97,172.77,115.64
318.19,297.66,169.89,113.72
318.5,298.83,166.76,111.62
319.15,298.94,164.02,109.79
319.7,298.78,162.37,108.68
318.65,301.14,159.24,106.59
318.66,300.33,156.86,104.99
318.55,301.07,155.18,103.87
320.22,300.37,154.84,103.64
316.58,304.29,154.53,103.43
316.63,305.85,153.71,102.88
317.18,306.7,153.48,102.73
316.97,307.31,153.01,102.42
318.36,305.46,152.97,102.39
320.05,305.28,154.57,103.46
321.05,303.38,156.43,104.71
320.49,301.13,158.72,106.24
319.89,300.04,160.34,107.32
320.1,298.8,161.83,108.32
319.63,297.71,162.11,108.51
318.36,297.51,161.28,107.95
318.43,297.98,160.7,107.57
318.82,297.6,160.15,107.2
319.96,298.27,160.17,107.21
319.59,298.72,159.59,106.82
318.87,298.92,159.69,106.89
319.38,299.41,159.44,106.72
318.21,299.12,158.86,106.33
318.58,299.03,158.43,106.05
319.13,299.24,157.83,105.64
319.51,298.96,157.48,105.41
319.77,299.06,157.72,105.57
319.91,298.5,157.4,105.36
320.43,298.77,157.1,105.15
320.42,298.56,156.92,105.03
321,298.97,157.66,105.53
321.28,298.62,157.13,105.18
321.51,298.69,158.32,105.97
322.37,297.6,158.8,106.29
322.2,298.63,158.98,106.41
322.94,299.29,159.1,106.49
321.54,299.7,158.83,106.31
321.99,301.02,158.3,105.96
322.14,301.24,157.85,105.66
322.44,303.02,157.74,105.58
321.87,303.83,157.63,105.51
321.73,305.23,158.18,105.88
321.97,307.11,157.7,105.55
321.49,308.61,158.23,105.91
322.29,309.3,158.98,106.41
322.2,308.7,159.44,106.72
321.67,310.1,160.11,107.17
322.23,310.39,160.11,107.17
321.95,311.57,160.44,107.39
321.9,306.55,160.33,107.32
322.27,298.3,159.63,106.85
322.41,292.88,159.92,107.05
322.47,292.95,160.59,107.49
322.66,294.17,160.57,107.48
322.13,291.12,158.67,106.2
321.55,285.7,156.7,104.89
321.97,286.82,154.88,103.67
321.67,286,154.54,103.44
322.78,284.59,155.19,103.88
321.7,286.39,155.68,104.21
322.17,285.42,155.11,103.82
321.98,285.93,154.7,103.55
322.01,286.65,154.49,103.41
322.11,287.59,154.18,103.2
322.52,286.33,154.18,103.2
322.58,286.94,153.38,102.66
322.63,286.47,152.17,101.85
322.78,286.51,150.95,101.04
323.16,286.33,150.34,100.63
322.82,286.83,150.05,100.43
323.01,286.54,148.89,99.659
322.57,286.03,149,99.736
323.12,285.69,149.69,100.2
323.18,285.38,150.82,100.96
322.76,285.29,151.72,101.55
322.29,284.55,153.14,102.51
322.51,284.61,153.79,102.94
321.72,285.86,154.98,103.73
320.38,286.43,155.14,103.85
320.17,286.5,155.58,104.14
320.02,287.3,155.72,104.23
320.4,286.11,155.53,104.11
321.52,285.7,156.6,104.82
321,285.16,157.81,105.63
320.28,285.33,159.23,106.58
320.53,286.38,159.72,106.91
320.34,285.88,160.14,107.19
319.99,285.57,160.14,107.19
320.15,285.44,160.26,107.27
319.23,285.63,161.14,107.86
318.8,285.64,161.47,108.08
319.44,285.9,161.66,108.21
320,285.4,160.91,107.71
319.94,285.34,158.77,106.27
320.41,285.36,158.46,106.07
320.42,285.26,158.48,106.08
320.9,284.71,158.96,106.4
320.27,285.42,163.53,109.46
317.41,287.58,163.91,109.72
315.07,289.1,165.11,110.52
313.07,288.91,165.71,110.92
312.88,287.93,167.39,112.04
312.08,285.2,168.29,112.65
312.82,285,169.55,113.49
309.94,287.04,173.55,116.17
309.65,287.75,176.87,118.39
310.16,287.08,179.97,120.46
310.12,285.92,182.04,121.85
310.38,285.05,183.6,122.89
310,284.51,184.59,123.56
309.74,285.11,185.84,124.39
309.59,284.1,186.38,124.76
309.6,284.08,186.83,125.06
309.35,284.25,186.1,124.57
309.39,284.07,185.19,123.96
309.53,283.38,186.05,124.53
309.61,283.47,185.6,124.23
309.59,283.73,185.41,124.1
309.55,283.59,185.99,124.49
309.18,282.66,185.96,124.47
309.18,282.62,185.58,124.22
309.08,282.1,186.42,124.78
309.22,281.89,186.3,124.7
309.6,282.34,185.74,124.33
308.96,280,187.66,125.61
309.05,280.37,188.17,125.95
308.95,279.65,187.33,125.39
309.06,280.41,187.26,125.34
309.46,281.83,185.29,124.02
309.38,282.91,184.6,123.56
310.01,283.57,182.18,121.94
310.79,284.55,179.37,120.06
310.73,284.88,178.01,119.15
311.21,285.58,177.59,118.87
311.09,284.76,177.35,118.71
311.41,284.95,175.34,117.37
311.6,285.42,173.52,116.15
311.96,286.16,174.36,116.71
311.48,285.73,173.9,116.4
310.94,285.56,173.79,116.33
310.92,285.66,174.02,116.48
310.96,285.5,172.89,115.73
310.73,285.61,172.08,115.18
311.14,285.67,170.53,114.14
310.78,285.46,170.4,114.06
311.7,286.26,170.69,114.25
311.65,285.59,169.63,113.54
311.1,285.05,169.93,113.74
311.41,286.2,172.21,115.27
310.28,287.11,175.57,117.52
309.93,286.95,178.03,119.16
309.36,286.76,179.16,119.92
308.68,286.96,179.03,119.83
308.92,287.49,179,119.81
308.72,287.13,179.8,120.35
308.13,286.22,180.15,120.59
308.55,286.9,180.31,120.69
308.3,286.17,180.68,120.94
308.55,285.65,179.75,120.32
308.91,286.13,180.38,120.74
309.19,286.21,180.19,120.61
309.24,286.1,181.1,121.22
308.79,285.75,181.66,121.59
308.81,285.78,181.84,121.72
309.3,286.01,179.72,120.29
309.25,286.79,179.9,120.41
308.88,286.49,180.57,120.87
308.59,285.85,180.82,121.03
309.04,285.58,180.72,120.96
308.44,284.9,180.11,120.56
309.03,285.23,181.04,121.18
309.35,285.23,180.83,121.04
309.71,285.32,180.5,120.82
309.83,285.33,180.37,120.73
310.19,285.44,180.31,120.69
309.71,285.72,180.14,120.57
309.92,286.32,181.17,121.26
310.64,286.83,180.98,121.14
310.58,287.62,180.18,120.6
311.75,289.56,180.21,120.62
312.56,290.99,179.94,120.44
313.77,290.55,178.18,119.27
314.29,291.73,176.64,118.24
315.49,291.17,174.32,116.68
316.45,291.99,169.08,113.18
318.33,293.37,164.02,109.79
319.23,292.27,158.17,105.87
321.38,292.82,153.52,102.76
321.14,293.11,151.51,101.41
321.47,288.91,151.9,101.67
323.59,288.87,151.75,101.58
323.42,286.87,150.08,100.45
325.97,284.36,149.71,100.21
327.62,284.14,150.52,100.75
327.15,285.69,149.73,100.22
337.24,290.53,148.2,99.199
334.26,292.04,146.96,98.372
333.96,290.13,143.72,96.199
334.41,286.84,142.09,95.108
337.42,285.44,139.51,93.385
336.31,284.9,137.04,91.731
334.72,284.8,135.13,90.449
334.72,284.32,133.27,89.205
333.91,285.1,131.87,88.265
333.56,284.73,130.76,87.527
333.47,284.78,130.35,87.252
332.95,284.35,130.01,87.022
332.31,284.43,129.63,86.77
333.41,283.99,129.87,86.931
333.92,282.25,131.44,87.979
335.07,280.55,132.99,89.015
333.49,279.75,134.25,89.86
332.56,278.6,135.04,90.392
333.39,277.81,136.61,91.442
333.03,279.97,136.76,91.544
332.4,278.13,138.31,92.578
333.01,282.4,137.28,91.889
333.89,282.44,136.67,91.483
333.74,281.85,136.46,91.339
333.62,281.82,135.84,90.928
333.84,282.68,135.14,90.455
333.98,282.32,133.95,89.662
333.36,282.97,133.6,89.424
333.24,282.75,132.59,88.748
332.65,284.39,132.5,88.692
333.54,286.63,131.59,88.081
333.7,286.88,131.46,87.997
332.46,286.8,130.69,87.476
334.39,287.48,129.75,86.848
335.98,286.91,127.84,85.571
335.75,284.62,127.5,85.345
338.78,284.43,127.95,85.645
339.14,284.48,127.84,85.569
339.53,285.45,127.77,85.521
339.17,285.72,127.69,85.468
339.42,285.97,127.54,85.366
339.61,286.01,127.14,85.103
340.17,285.45,126.23,84.49
340.89,285.9,125.28,83.854
339.59,286.78,123.81,82.876
339.46,287.58,123.06,82.369
338.87,288.25,122.06,81.699
338.58,289.63,122.48,81.983
338.03,289.99,122.14,81.757
339.1,290.04,121.38,81.249
337.71,290.11,120.7,80.794
337.49,290.65,120.51,80.661
337.93,290.8,120.31,80.532
338.09,291.09,120.19,80.448
337.53,290.68,119.83,80.207
337.92,291.29,119.85,80.224
338.02,291.13,119.78,80.178
337.95,291.23,119.75,80.157
337.68,290.73,119.62,80.071
337.26,290.55,119.83,80.208
337.82,290.4,120.55,80.687
337.88,290.16,120.39,80.587
337.62,289.72,120.92,80.937
337.06,289.3,121.36,81.231
337.14,288.78,120.97,80.971
337.22,288.94,121.82,81.542
336.74,288.36,121.92,81.608
336.57,288.18,121.76,81.503
336.35,288.05,121.78,81.517
336.21,288.06,121.7,81.461
336.12,287.92,121.8,81.526
335.84,288.06,120.27,80.501
335.78,288.36,119.72,80.136
336.48,288.62,118.94,79.614
337.7,289.13,119.39,79.912
338.94,289.65,119.96,80.298
339.68,290.48,119.34,79.878
339.72,291.1,118.58,79.373
339.73,291.36,117.63,78.738
340.34,292.35,117.03,78.334
340.59,293.1,115.31,77.182
341.57,294.29,113.81,76.176
342.01,294.56,113.73,76.123
341.99,294.92,113.38,75.888
343.12,295.58,112.73,75.458
343.36,296.39,112.95,75.604
343.39,296.27,112.98,75.626
343.48,296.25,113.05,75.671
343.95,296.25,112.86,75.544
343.52,296.5,112.64,75.399
343.52,295.54,111.74,74.791
342.55,294.96,112,74.965
342.26,294.59,110.31,73.836
342.46,296.21,108.08,72.345
342.96,297.21,107.09,71.684
342.66,296.29,107.17,71.734
342.34,292.75,110.61,74.04
341.77,290.97,111.83,74.852
342.37,291.45,111.65,74.733
344.95,292.15,112.67,75.415
342.33,293.79,111.65,74.737
341.2,294.88,110.09,73.687
341.2,294.8,109.39,73.221
340.88,295.34,109.3,73.158
341.57,296.07,109.36,73.198
341.66,295.59,110.64,74.058
341.86,295.69,110.89,74.226
342.15,295.04,111.66,74.742
341.85,294.81,113.36,75.88
341.77,295.08,114.04,76.33
341.26,295.5,114.81,76.851
341.33,295.39,114.95,76.941
341.46,295.97,115.19,77.102
341.61,295.71,114.51,76.646
341.7,295.79,114.16,76.413
341.74,295.69,114.1,76.374
341.68,295.23,113.28,75.822
341.93,295.11,113.37,75.888
341.99,294.47,113.49,75.964
342.21,293.98,113.49,75.964
342.42,294.17,112.72,75.452
343.27,293.94,111.89,74.891
343.14,292.62,110.5,73.965
343.17,292.37,109.4,73.229
344.74,297.72,110.1,73.698
344.9,299.43,109.46,73.271
345.45,297.76,109.41,73.236
344.94,297.07,109.18,73.082
345.48,297.78,109.3,73.163
345.07,298.08,109.51,73.298
344.3,297.35,110.74,74.123
343.68,296.9,110.73,74.118
343.32,296.51,110.78,74.154
342.69,295.99,110.62,74.044
343.17,296.17,110.07,73.673
343.05,296.34,110.21,73.769
342.93,296.42,110.29,73.822
343.07,296.77,109.92,73.575
342.6,296.64,109.59,73.352
343,296.37,110.01,73.636
343.44,296.48,110.01,73.634
343.75,296.26,110.32,73.846
343.69,296.07,110.27,73.807
343.96,296.08,110.16,73.736
344.09,296.31,109.62,73.373
344.37,296.88,109.36,73.198
344.5,297.16,108.96,72.935
344.58,297.09,108.8,72.825
344.77,297.04,108.44,72.588
344.82,296.21,108.46,72.597
344.7,295.81,107.78,72.143
343.18,295.52,107.65,72.056
342.84,295.66,107.43,71.911
342.68,295.83,107.06,71.658
342.44,295.95,105.85,70.854
342.82,296.34,105.97,70.933
341.98,295.77,105.9,70.882
341.06,295.7,105.63,70.701
341.05,295.54,105.41,70.559
338.96,294.6,104.27,69.797
339.54,295.06,104.07,69.657
339.95,297.19,104.62,70.03
339.93,296.99,106.28,71.142
339.8,296.55,107.79,72.149
339.45,296.21,107.79,72.153
339.5,296.07,108.48,72.61
339.43,295.99,108.8,72.825
338.96,295.94,108.7,72.759
339.03,295.85,108.85,72.857
338.87,295.51,109.6,73.36
338.67,295.57,109.87,73.541
338.72,295.73,109.98,73.618
339.25,295.54,109.91,73.566
338.71,295.63,109.7,73.431
338.76,295.88,109.47,73.276
339.04,295.89,110.07,73.676
338.71,295.79,110.26,73.806
338.97,295.53,109.87,73.541
339,295.68,109.84,73.521
338.99,295.4,109.8,73.496
338.9,295.2,110.05,73.665
338.63,295.2,110.29,73.823
339.06,295.49,110.1,73.696
338.88,295.66,110.54,73.99
339.07,295.82,110.63,74.054
338.97,295.76,110.64,74.056
338.87,295.38,111.37,74.545
339.17,295.26,111.21,74.438
339.02,295.39,111.7,74.77
339.02,295.34,111.84,74.86
338.94,295.78,111.75,74.8
338.95,295.52,111.71,74.773
339.45,295.52,111.73,74.788
339.13,295.47,111.64,74.727
339.26,295.73,111.43,74.583
339.13,295.72,111.35,74.533
339.04,295.44,111.19,74.425
339.34,295.82,111,74.296
339.11,295.65,111.13,74.387
339.57,295.8,110.95,74.263
339.3,295.88,110.81,74.17
339.35,295.99,110.65,74.065
339.32,296.08,110.61,74.036
339.51,296.2,110.45,73.932
339.61,296.18,110.34,73.86
339.64,296.23,110.38,73.884
339.56,296.26,110.34,73.855
339.62,296.17,110.37,73.878
339.45,296.1,110.36,73.867
339.41,296.08,110.13,73.717
309.54,365.21,109.93,73.582
339.31,296.57,109.9,73.562
339.25,296,110.06,73.672
339.06,295.84,109.82,73.51
338.89,296.1,109.76,73.471
339.1,296.34,109.56,73.335
309.68,365.31,109.64,73.385
339.04,296.8,109.6,73.359
338.62,296.2,109.77,73.474
338.79,296.14,109.46,73.267
338.82,296.2,108.99,72.956
338.74,296.18,108.79,72.817
338.7,296.47,108.55,72.661
339.16,296.62,108.59,72.688
338.96,296.67,108.6,72.689
339.15,296.76,108.62,72.706
339.09,296.63,108.55,72.656
339.42,296.75,108.48,72.611
340.14,297.06,109.39,73.223
341.75,297.5,110.25,73.795
343.05,297.2,111.39,74.558
345.11,295.59,110.79,74.16
345.12,296.46,111.26,74.474
347.33,297.31,110.34,73.854
347.88,299.22,109.9,73.561
350.04,299.38,108.63,72.714
352.05,300.43,107.44,71.914
355.81,301.64,107.58,72.008
357.26,301.97,106.99,71.617
360.72,303.25,106.12,71.029
363.5,303.93,104.54,69.974
367.14,303.39,105.15,70.386
369.7,302.6,104.8,70.147
372.3,302.28,104.95,70.249
373.96,302.03,104.31,69.823
375.11,302.04,103.86,69.52
375.82,301.48,102.24,68.437
374.48,301.3,100.08,66.989
371.32,299.92,99.151,66.367
366.28,298.92,99.532,66.622
360.73,297.65,99.624,66.684
349.7,295.42,100.41,67.213
340.95,293.71,100.78,67.459
338.29,297.42,101.63,68.023
335.11,298.72,102.77,68.789
334.49,298.71,103.65,69.38
304.6,297.14,103.64,69.37
286.56,297.69,103.67,69.391
290.54,275,103.58,69.333
289.69,271.56,103.35,69.176
286.51,271.87,103.47,69.255
287.51,284.9,104.77,70.13
358.87,301.02,104.55,69.982
349.62,299.7,106.5,71.289
340.54,298.23,107.25,71.788
339.27,297.75,108.19,72.419
339.49,297.62,109.46,73.267
338.46,296.91,110.07,73.677
339.03,297.06,110,73.626
340.82,297.43,109.65,73.397
340.24,297.22,110.06,73.669
344.03,297.48,110.93,74.255
283.33,284.99,110.47,73.944
287.72,266.69,109.66,73.399
287.52,267.32,110.72,74.114
284.1,282.69,109.71,73.432
333.42,296.5,107.76,72.13
339.54,297.66,106.7,71.421
341.53,297.49,107.96,72.266
340.69,297.38,108.87,72.871
338.64,297.49,107.59,72.017
339,297.46,108.25,72.458
340.14,297.66,108.88,72.877
339.21,297.57,110.41,73.902
340.9,297.24,111.62,74.715
338.42,297.36,111.8,74.835
341.44,296.21,112.11,75.041
343.99,294.77,111.53,74.655
344.43,295.24,111.61,74.705
342.63,296.31,110.73,74.12
345.43,296.83,110.55,73.997
346.72,297.39,110.2,73.765
343.27,297.7,109.69,73.425
343.35,311.71,109.87,73.542
312.33,270.64,108.88,72.882
319.1,256.32,109.4,73.226
323.55,237.51,108.97,72.942
325.28,229.87,109.59,73.354
339.12,297.57,110.55,73.998
340.45,296.34,111.05,74.335
339.66,296.85,110.81,74.169
301.45,293.25,109.86,73.533
299.25,291.61,109.78,73.484
295.9,289.94,110.34,73.856
290.56,288.13,110.48,73.947
289,279.54,110.36,73.87
290.83,273.86,110.5,73.961
340.38,227.72,110.24,73.791
347.71,290.54,110.32,73.842
352.24,291.13,110.62,74.047
437.88,305.43,110.74,74.121
445.56,305.46,109.85,73.526
448.64,303.43,109.46,73.269
345.32,295.61,110.58,74.016
337.5,295.52,110.72,74.114
341.05,295.84,110.27,73.813
343.96,295.64,109.51,73.301
345.45,295.35,109.1,73.029
346.51,295.23,109.05,72.994
347.48,295.73,108.81,72.83
348.82,295.92,108.71,72.766
351.75,295.92,108.51,72.631
353.27,295.78,108.65,72.727
354.72,295.53,108.8,72.826
357.05,295.48,107.62,72.036
359.72,295.73,106.86,71.524
364.13,295.62,107.27,71.804
368.44,295.98,107.63,72.041
372.35,296.04,107.69,72.086
374.76,295.6,108.13,72.376
377.49,295.51,107.26,71.796
385.8,296.44,107.01,71.63
387.53,297.12,108.58,72.677
377.85,220.76,108.1,72.357
407.43,184.55,107.86,72.199
408.03,182.39,108.13,72.38
411.82,182.47,109.2,73.096
410.58,182.68,109.53,73.314
408.69,182.85,108.74,72.786
409.55,183.77,107.58,72.012
411.88,183.56,108.84,72.855
409.61,184.09,107.26,71.797
408.49,184.24,104.87,70.195
407.43,184.48,103.14,69.034
407.85,185.93,100.86,67.511
408.22,186.09,98.725,66.082
407.75,186.91,96.981,64.915
406.6,188.27,95.068,63.634
406.86,188.5,93.661,62.692
407.6,188.04,92.12,61.661
406.85,189.05,91.132,60.999
406.86,188.91,89.212,59.714
406.64,189.47,87.871,58.817
407.25,190.42,86.754,58.069
407.76,189.74,85.783,57.419
407.73,189.47,85.253,57.065
406.53,189.65,84.593,56.623
409.92,188.34,85.052,56.93
409.19,189.15,85.422,57.178
409.46,188.7,86.094,57.628
410.57,189.48,86.781,58.087
412.94,189.33,88.266,59.081
411.54,190.57,88.791,59.433
412.29,191.37,89.925,60.192
410.22,190.41,90.461,60.55
409.98,189.75,91.603,61.315
404.69,188.06,90.704,60.713
405.36,190.76,90.843,60.806
405.36,190.04,91.556,61.283
401.32,191.87,90.331,60.463
399.35,191.97,89.478,59.892
402.99,192.11,89.812,60.116
409.18,191.65,90.182,60.364
412.12,190.72,90.621,60.658
413.85,190.67,91.595,61.31
412.03,190.35,91.894,61.509
413.46,190.01,92.302,61.783
415.64,190.02,92.125,61.664
417.24,189.82,91.515,61.256
417.04,189.64,91.196,61.042
416.11,189.68,92.155,61.684
414.58,189.99,92.558,61.954
411.69,190.21,92.773,62.098
410.02,190.59,92.295,61.778
408.12,191.01,93.023,62.266
406.41,191.75,92.987,62.241
405.94,192.33,93.049,62.283
400.43,192.46,93.041,62.277
397.45,192.97,92.32,61.795
397.1,191.58,90.814,60.787
401.88,192.06,89.028,59.591
406.35,187.42,87.979,58.889
412.03,115.08,88.004,58.906
414.77,113.53,87.722,58.717
416.75,188.6,86.549,57.932
421.06,190.54,85.28,57.083
252.33,489.78,84.335,56.45
255.67,461.29,83.951,56.193
279.64,442.48,83.061,55.597
316.95,469.59,82.471,55.202
321.11,467.98,81.777,54.738
321.08,469.37,80.884,54.14
320.29,468.07,81.055,54.255
371.63,443.65,80.238,53.708
373.46,443.72,79.41,53.153
243.86,497.47,79.282,53.068
244.69,498.18,79.451,53.181
248.22,500.54,79.984,53.538
263.44,490.25,79.313,53.088
273.87,443.76,79.156,52.983
273.96,444.37,79.553,53.249
276.13,444.15,80.049,53.581
283.14,443.21,80.552,53.918
274.91,443.54,80.551,53.917
273.15,443.95,80.352,53.784
271.47,445.03,80.74,54.044
273.88,445.36,81.41,54.492
277.51,445.4,81.496,54.549
269.95,443.95,82.229,55.04
271.91,444.03,82.76,55.396
273.46,443.12,83.237,55.715
275.1,442.27,83.823,56.107
284.51,442.63,83.283,55.746
277.26,442.98,82.883,55.478
274.61,442.85,82.599,55.288
274.61,442.38,82.555,55.259
275.75,442.17,82.94,55.516
274.24,442.78,82.49,55.215
274.28,441.98,81.869,54.8
274.64,441.62,81.286,54.409
273.69,441.76,80.006,53.553
272,442.07,78.893,52.807
