80.5,213.5,26,47
82.553,213.95,25.825,46.683
83.895,214.39,26.017,47.031
86.017,214.55,26.003,47.005
88.388,214.46,26.106,47.192
89.75,214.66,25.89,46.802
92.286,215.52,25.869,46.763
94.236,215.72,26.035,47.063
96.407,215.02,25.889,46.799
98.138,215.22,25.855,46.738
100.61,215.32,25.994,46.989
103.16,215.47,26.051,47.093
105.3,214.88,26.305,47.551
107.94,215.01,26.444,47.803
109.81,214.96,26.379,47.686
112.42,215.62,26.396,47.717
115.25,215.38,26.42,47.759
117.07,214.97,26.42,47.76
118.92,215.33,26.492,47.889
121.12,216.09,26.542,47.979
123.21,215.96,26.685,48.238
125.35,215.68,26.66,48.193
127.29,215.86,26.667,48.205
129.83,216.46,26.495,47.895
132.46,216.43,26.623,48.126
134.42,216.38,26.662,48.197
135.47,216.4,26.778,48.406
136.97,217.05,26.59,48.067
139.18,217.53,26.822,48.486
140.13,216.85,26.866,48.565
141.82,217.01,26.748,48.353
143.25,217.15,26.75,48.357
145.04,217.91,26.71,48.284
147.11,217.96,26.698,48.262
148.36,218.05,26.607,48.097
149.73,218.86,26.609,48.1
150.81,219.32,26.756,48.367
151.39,218.91,26.678,48.226
152.47,218.8,26.631,48.141
153.87,219.17,26.679,48.228
154.94,219.62,26.739,48.335
156.12,219.87,26.686,48.241
157.92,219.58,26.759,48.372
159.12,219.2,26.642,48.16
160.76,220.16,26.642,48.16
162.41,220.86,26.646,48.168
164.25,221.32,26.637,48.151
165.92,220.42,26.941,48.701
167.72,220.88,27.027,48.857
169.12,221.03,27.147,49.074
171.17,221.08,27.165,49.106
173.39,221.19,27.076,48.945
174.72,221.21,27.151,49.08
175.36,221.51,26.98,48.771
177.12,222.3,27.186,49.144
178.34,221.79,27.357,49.453
179.3,221.51,27.368,49.473
180.57,222.07,27.44,49.602
181.97,222.78,27.524,49.755
183.57,222.67,27.276,49.306
184.59,222.75,27.389,49.511
184.82,223.27,27.272,49.299
185.85,223.88,27.483,49.68
185.87,223.41,27.362,49.463
186.45,223.53,27.332,49.408
187.37,223.77,27.287,49.326
188.29,224.65,27.333,49.41
189.2,225.02,27.441,49.605
189.81,224.23,27.443,49.608
190.42,224.41,27.404,49.538
190.82,224.99,27.428,49.581
191.79,225.46,27.322,49.39
192.52,225.65,27.346,49.433
192.81,225.18,27.398,49.527
193.63,226.08,27.553,49.808
194.17,226.73,27.678,50.032
195.71,226.62,27.475,49.667
195.66,225.97,27.671,50.021
196.31,226.92,27.775,50.209
195.91,227.18,27.719,50.108
196.25,227.21,27.682,50.04
196.28,227,27.615,49.92
196.74,227.46,27.812,50.276
197.23,228.04,27.803,50.26
197.71,228.01,27.888,50.412
198.39,227.98,27.975,50.57
198.56,227.9,28.363,51.272
198.59,228.6,28.482,51.487
198.74,228.72,28.673,51.832
198.68,228.21,28.762,51.992
198.74,228.16,28.776,52.018
199.36,228.77,28.805,52.071
200.34,229.2,28.776,52.018
201.23,229.3,28.741,51.954
201.85,228.68,28.916,52.272
202.06,228.82,29.012,52.446
202.43,229.73,29.116,52.633
202.41,229.89,29.191,52.769
202.54,229.66,29.328,53.016
202.64,229.59,29.271,52.913
202.68,230.41,29.251,52.876
202.83,231.44,29.264,52.9
203.11,231.25,29.322,53.006
203.17,230.86,29.325,53.01
203.16,231.16,29.401,53.148
202.92,231.86,29.378,53.106
203.1,231.86,29.589,53.488
203.62,231.55,29.911,54.069
204.2,231.78,29.932,54.108
205.2,232.63,29.969,54.175
205.81,232.91,29.849,53.958
207.17,232.87,29.904,54.056
208.29,232.79,29.866,53.988
208.89,233.89,29.897,54.045
209.4,234.55,29.785,53.842
209.48,234.35,29.977,54.188
209.78,234.38,29.966,54.169
210.12,235.42,29.835,53.933
210.32,236.07,29.905,54.059
210.73,235.89,29.905,54.06
210.84,236.13,29.964,54.166
210.3,236.56,30.016,54.26
210.04,237.16,29.989,54.211
209.73,236.71,30.136,54.476
209.6,236.67,30.235,54.655
210.02,237.69,30.192,54.578
210.28,238.35,30.245,54.673
211,238.2,30.182,54.56
211.13,238.08,30.14,54.483
211.17,238.84,30.138,54.48
211.14,239.61,30.142,54.487
211,239.53,30.192,54.578
210.8,239.16,30.331,54.828
210.59,239.22,30.465,55.071
210.84,240.03,30.497,55.129
211.44,240.94,30.439,55.024
211.62,240.4,30.458,55.059
211.54,240.12,30.539,55.205
211.57,241.07,30.744,55.575
211.21,241.53,30.846,55.76
210.95,240.94,31.121,56.258
210.71,240.79,31.141,56.293
211.23,241.87,31.169,56.344
211.56,242.41,31.203,56.405
212.51,242.7,31.252,56.494
212.85,242.54,31.247,56.485
213.07,243.57,31.343,56.659
213.24,244.65,31.529,56.996
212.86,243.94,31.781,57.45
213.21,243.71,32.025,57.891
213.68,244.24,32.136,58.092
213.97,244.86,32.182,58.175
214.66,245.18,32.201,58.209
215.26,245.31,32.157,58.13
215.6,245.56,32.247,58.293
215.35,246.44,32.289,58.369
215.83,247.21,32.179,58.169
215.33,246.79,32.278,58.349
215.46,247.14,32.246,58.29
215.54,248.01,32.211,58.227
216.05,248.53,32.288,58.366
216.59,248.31,32.565,58.868
216.39,247.96,32.555,58.849
216.41,248.64,32.609,58.946
216.24,249.22,32.702,59.115
216.28,249.58,32.866,59.412
215.36,249.12,33.034,59.716
216.11,250.14,33.192,60.001
215.89,250.74,33.27,60.142
216.58,250.67,33.329,60.249
216.65,250.27,33.544,60.637
216.43,251.7,33.605,60.748
216.21,252.16,33.538,60.627
215.93,251.99,33.777,61.058
216,252.02,33.985,61.434
215.38,251.79,34.161,61.752
215.93,252.84,34.221,61.862
216.07,252.9,34.242,61.899
216.23,252.47,34.336,62.068
216.23,252.51,34.433,62.244
216.67,253.44,34.571,62.494
216.48,253.84,34.601,62.547
216.22,253.57,34.758,62.831
216.49,253.45,34.835,62.971
216.87,254.01,34.831,62.964
218.05,256.36,34.978,63.229
218.4,256.4,34.956,63.19
218.99,256.09,35.119,63.485
219.59,256.65,35.111,63.47
219.82,257.55,35.134,63.511
220.09,258.09,35.361,63.922
219.68,257.39,35.474,64.126
220.02,257.41,35.711,64.555
220.44,258.22,35.753,64.631
221.5,259.38,35.519,64.207
222.59,259.99,35.667,64.475
222.92,259.41,35.863,64.828
223.34,260,36.111,65.278
223.13,261.12,36.142,65.333
223.01,261.26,36.239,65.51
223.35,261.21,36.366,65.739
223.56,261.54,36.32,65.656
224.65,263.17,36.357,65.721
225.61,263.89,36.365,65.736
226.78,263.62,36.476,65.938
227.6,263.9,36.511,66.001
228.23,264.84,36.572,66.111
229.03,265.51,36.727,66.392
229.27,265.17,37.004,66.893
229.67,265.08,37.153,67.162
230.83,266.53,37.08,67.029
232.48,267.87,36.959,66.811
233.72,268.03,37.202,67.249
234.29,267.93,37.137,67.132
234.84,268.95,37.079,67.027
234.85,269.91,37.178,67.207
234.68,270.32,37.254,67.343
234.61,269.87,37.421,67.647
234.79,270.3,37.35,67.518
235.53,271.77,37.414,67.634
236.29,272.24,37.41,67.625
236.93,271.9,37.563,67.903
236.98,272.08,37.63,68.024
236.63,273.06,37.717,68.181
236.59,274.15,37.877,68.47
236.41,273.89,38.103,68.878
236.52,274.19,38.25,69.144
236.72,275.06,38.362,69.347
237.36,276.48,38.363,69.349
238.27,276.9,38.523,69.638
239.27,276.84,38.712,69.979
239.08,277.13,38.75,70.048
239.24,278.43,38.543,69.675
239.41,279.23,38.577,69.735
239.38,279.05,38.666,69.897
239.3,278.93,38.785,70.112
239.93,280.79,38.794,70.128
240.63,281.79,38.844,70.218
241.62,282.17,38.915,70.346
241.93,282.15,38.971,70.447
241.99,283,39.048,70.586
241.34,284.03,39.252,70.956
241.5,284.3,39.481,71.37
241.64,283.99,39.631,71.641
241.98,284.15,39.704,71.773
242.23,285.38,39.792,71.932
243.94,286.15,40.008,72.322
245.26,285.57,40.136,72.553
245.51,285.66,40.303,72.856
246.13,286.96,40.693,73.56
245.97,287.72,40.94,74.007
246.15,288.11,41.146,74.38
246.06,287.87,41.039,74.186
246.88,289,40.906,73.946
248.12,290.99,40.797,73.748
248.68,291.35,40.618,73.425
250.38,291.61,40.62,73.429
250.6,291.56,40.933,73.993
250.82,292.86,41.004,74.122
251.49,293.62,41.088,74.274
251.64,293.23,41.113,74.32
252.08,293.02,41.221,74.515
253.22,294.52,41.632,75.257
254.33,295.47,42.089,76.085
255.46,295.33,42.346,76.548
256.61,295.33,42.54,76.9
257.26,295.65,42.558,76.933
258.1,297.06,42.346,76.548
259.22,298.17,42.471,76.774
259.62,297.82,42.471,76.774
260.83,297.85,42.487,76.803
262.92,299.59,42.499,76.825
265.01,300.93,42.607,77.021
267.04,300.66,42.88,77.513
268.2,300.33,43.118,77.944
269.74,301.87,43.358,78.377
270.78,302.88,43.574,78.769
271.03,302.46,43.861,79.288
272.04,302.53,44.1,79.72
273.55,303.15,44.304,80.088
274.73,304.87,44.271,80.029
276.52,305.54,44.172,79.85
278.51,305.64,44.339,80.152
279.97,306.59,44.296,80.074
281.49,308.18,44.098,79.716
283.48,309.35,44.294,80.07
284.54,308.83,44.38,80.225
286.69,308.79,44.496,80.435
288.37,309.99,44.77,80.93
290.18,311.12,45.217,81.739
293.05,311.55,45.466,82.189
295.21,311.33,45.738,82.681
299.18,312.45,45.768,82.734
301.99,313.78,45.708,82.626
305.5,314.41,45.991,83.137
309.02,314.19,46.26,83.623
313.85,314.38,46.334,83.757
318.59,315.82,46.57,84.184
324,317,46.578,84.198
328.95,317.14,46.535,84.122
332.95,316.68,46.528,84.109
336.91,317.52,46.741,84.493
341.89,319.49,46.825,84.645
346.65,319.5,47.069,85.087
351.23,319.39,47.317,85.535
355.14,319.2,47.303,85.509
358.9,320.09,47.364,85.62
364.76,321.6,47.525,85.91
372.5,321.68,47.569,85.991
376.48,321.47,47.299,85.503
381.07,322.9,47.424,85.728
386.29,324.53,47.761,86.337
391.43,325.13,47.86,86.515
395.44,324.66,47.985,86.742
399.99,324.44,47.979,86.731
405.2,326.16,47.864,86.524
412.02,327.66,48.138,87.019
418.35,327.96,48.16,87.059
422.08,327.92,47.953,86.683
426.05,328.54,47.862,86.519
431.58,330.59,47.805,86.416
437.43,331.84,48.025,86.814
441.88,331.66,48.352,87.405
447,330.95,48.517,87.704
452.61,332.54,48.493,87.66
457.84,333.72,48.808,88.23
464,333.53,49.005,88.586
468.72,333.12,48.782,88.183
473.59,334.36,49.133,88.818
478.82,335.71,49.615,89.688
482.11,335.59,49.899,90.202
473.17,336.24,50.056,90.486
459.03,335.93,50.16,90.675
445.97,337.75,50.693,91.637
433.64,339.84,50.459,91.215
423.14,340.77,50.412,91.129
424.16,340.77,50.724,91.694
432.7,341.41,51.156,92.474
437.66,343.11,51.204,92.562
445.07,343.67,51.555,93.195
450.12,343.01,51.933,93.88
455.27,343.3,52.266,94.482
461.02,345.17,52.536,94.969
466.45,346.22,52.66,95.193
472.56,346.75,52.752,95.36
477.34,345.88,53.051,95.899
482.41,347.43,52.922,95.666
487.45,348.79,52.682,95.233
492.81,349.17,52.925,95.672
490.78,349.09,53.182,96.137
478.35,349.13,53.14,96.062
466.34,350.83,53.073,95.939
455.29,352.85,53.302,96.354
446.97,353.11,53.393,96.519
435.85,352.83,53.299,96.349
423.16,353.9,53.431,96.586
407.57,356.67,53.581,96.858
396,357.38,53.912,97.456
384.83,357,54.351,98.25
374.87,358.25,54.435,98.402
362.36,360.57,54.532,98.577
351.54,363.14,54.871,99.19
340.11,363.29,55.184,99.756
326.65,363.94,55.386,100.12
314.64,366.43,55.331,100.02
302.76,368.75,55.828,100.92
289.73,368.95,56.341,101.85
279.81,369.52,56.903,102.86
266.43,370.86,57.02,103.07
255.16,374.36,57.166,103.34
250.35,375.92,57.165,103.34
256.89,375.74,57.367,103.7
