423.5,64.5,116,77
423.65,60.284,117.06,77.707
421.83,58.033,119.43,79.279
420.36,56.036,121.14,80.412
418.65,54.03,122.2,81.112
418.11,53.428,121.93,80.939
417.63,53.058,121.51,80.658
417.72,53.709,121.07,80.368
418.21,55.06,120.25,79.819
417.76,55.876,120.25,79.821
417.61,58.51,120.12,79.733
417.56,59.683,120.43,79.94
417.9,61.259,121.37,80.566
418.23,62.3,120.64,80.083
418.56,63.138,120.4,79.923
419.68,64.296,120.95,80.284
419.78,65.196,121.2,80.45
420,65.032,120.56,80.027
421.08,65.296,120.96,80.294
421.63,65.856,120.86,80.228
422.48,65.894,120.84,80.213
422.65,65.691,120.65,80.088
423.52,65.342,119.9,79.589
424.38,65.769,120.25,79.823
424.17,65.326,120.16,79.765
424.73,65.453,120.17,79.768
425.53,65.121,119.63,79.412
425.75,64.882,119.21,79.132
426.14,63.974,120.47,79.97
426.92,62.69,119.39,79.254
426.84,60.633,120.03,79.675
426.3,56.216,120.03,79.673
426.1,53.405,120.24,79.814
424.85,51.049,121.48,80.639
424.17,51.424,122.72,81.459
423.82,56.788,121.38,80.571
423.25,60.609,121,80.32
423.31,64.24,120.25,79.821
422.44,66.071,119.67,79.435
422.03,67.806,119.83,79.543
421.99,69.097,120.25,79.821
421.28,69.147,120.51,79.994
421.76,69.3,120.92,80.263
421.71,69.17,121.2,80.453
421.57,68.357,121.19,80.442
423.13,67.285,120.64,80.081
424.41,66.37,119.54,79.352
425.16,65.566,118.99,78.984
425.8,65.495,118.16,78.432
426.43,65.302,118.55,78.69
426.7,65.129,117.67,78.106
426.61,65.479,118.14,78.422
426.73,66.137,117.92,78.275
426.34,66.205,117.36,77.903
426.31,66.076,117.41,77.935
426.08,65.633,117.54,78.025
425.8,65.743,118.18,78.447
424.78,65.28,119.04,79.015
423.95,64.675,119.22,79.139
423.83,64.769,119.47,79.304
422.39,64.208,120.05,79.687
421.95,63.881,120.43,79.939
421.85,64.185,120.67,80.101
421.26,63.687,120.92,80.268
421.44,64.081,120.94,80.277
421.05,63.786,121.5,80.653
420.52,63.354,122.1,81.049
420.13,62.856,122.61,81.39
419.99,62.724,122.4,81.245
419.29,61.749,122.44,81.276
418.33,61.186,123.32,81.856
416.54,59.952,125.28,83.159
415.47,59.382,126.11,83.709
415.08,58.728,127.95,84.931
412.86,57.655,130.29,86.488
412.08,56.945,132.16,87.73
416.43,57.491,134.32,89.164
390.88,52.395,133.02,88.3
389.04,52.536,131.64,87.383
387.26,52.264,130.22,86.44
419.36,58.503,131.3,87.157
418.34,58.77,132.2,87.752
417.55,58.659,133.66,88.721
417.15,58.346,134.01,88.955
417.18,58.669,134.67,89.394
416.64,57.784,134.54,89.308
416.68,57.689,135.68,90.066
417.14,57.887,135.84,90.172
416.84,57.366,136.38,90.525
416.53,57.584,137.24,91.099
417.67,57.106,138.52,91.951
416.73,56.342,139.59,92.658
415.96,56.903,140.24,93.087
416.03,56.806,140.65,93.361
415.33,56.922,142.06,94.297
413.41,56.666,143.09,94.983
412.95,56.704,145.17,96.362
411.91,56.361,146.67,97.359
410.6,56.287,147.15,97.677
410.05,56.108,147.61,97.982
409.59,56.188,148.73,98.725
409.66,56.282,148.22,98.388
409.54,56.397,147.83,98.127
410.35,55.459,147.14,97.671
410.51,55.555,147.2,97.71
409.75,55.405,148.22,98.387
409.25,55.344,148.2,98.372
409.45,55.172,147.37,97.822
410.49,54.734,145.61,96.654
410.18,54.176,145.67,96.696
409.43,53.991,146.21,97.056
409.57,53.983,145.26,96.423
410.08,54.3,144.8,96.118
409.93,53.894,144.96,96.224
409.48,53.84,145.16,96.354
409.41,53.908,145.07,96.293
409.32,53.867,145.13,96.334
409.04,53.739,145.36,96.489
408.56,53.811,145.27,96.427
408.47,53.695,145.26,96.423
408.26,53.87,145.01,96.257
408.32,54.105,144.88,96.169
408.2,54.002,144.99,96.243
408.28,54.196,144.6,95.986
408.45,54.566,143.82,95.464
408.71,54.615,143.57,95.303
408.45,55.058,144.18,95.705
408.07,55.863,144.78,96.103
408.22,56.494,145.38,96.501
408.63,57.693,145.19,96.377
409.31,58.547,144.8,96.116
409.68,59.153,144.83,96.135
409.7,58.86,145.8,96.782
409.56,58.514,147.74,98.072
408.16,58.09,148.26,98.412
408.13,57.518,148.47,98.556
407.96,58.88,149.23,99.06
407.16,60.136,150.47,99.879
406.62,58.46,150.44,99.863
407.2,58.573,150.02,99.585
408.24,56.429,148.42,98.523
407.75,56.37,146.53,97.263
407.88,56.362,145.64,96.677
408.3,57.288,144.17,95.698
408.19,57.537,143.91,95.526
407.74,57.279,144.06,95.623
407.56,57.469,144.29,95.78
407.16,56.981,144.49,95.908
406.71,56.958,144.73,96.069
406.67,56.78,144.98,96.238
406.25,56.636,145.13,96.334
405.94,56.766,145.34,96.477
405.86,56.87,145.64,96.675
405.31,56.881,145.28,96.436
405.43,56.78,145.31,96.456
405.12,56.787,145.25,96.417
404.96,56.548,145.11,96.325
404.85,56.884,145.08,96.304
404.58,56.627,144.98,96.235
404.56,56.374,145.07,96.295
404.7,56.335,145.18,96.367
404.73,56.608,145.57,96.626
404.81,56.312,145.72,96.73
405.23,56.175,145.71,96.718
405.45,56.142,145.79,96.776
405.67,55.853,145.54,96.609
405.57,55.838,145.55,96.614
406.22,55.453,145.71,96.72
406.63,55.048,146.27,97.094
406.97,54.878,146.86,97.485
406.94,54.816,147.48,97.897
407.39,55.06,147.69,98.035
407.42,54.85,147.63,97.993
407.89,55.533,147.53,97.931
408.19,55.375,147.68,98.03
407.81,55.063,147.37,97.825
408.13,54.673,147.32,97.79
407.54,54.185,147.13,97.665
406.97,54.478,146.77,97.427
406.36,54.337,147.03,97.599
405.4,54.404,147.47,97.892
404.66,54.324,146.95,97.542
403.64,53.946,147.21,97.717
402.13,53.663,147.41,97.849
401.31,53.679,146.99,97.57
400.82,53.87,146.19,97.038
400.35,53.472,145.78,96.766
400.09,53.188,145.63,96.666
399.39,53.408,145.79,96.776
399.06,53.014,146.01,96.924
398.43,52.953,146.71,97.384
397.78,52.867,147.24,97.736
397.68,52.809,147.41,97.847
397.31,52.92,147.93,98.192
397.49,53.157,147.81,98.117
397.12,52.933,148,98.24
397.29,53.121,147.95,98.211
397.08,52.989,147.96,98.216
397.17,53.09,147.93,98.196
397.22,53.112,147.65,98.01
396.83,52.993,147.67,98.025
396.68,52.975,147.66,98.014
396.86,53.278,147.15,97.68
396.78,53.282,147.16,97.685
396.94,53.446,146.9,97.513
397.12,53.295,147.14,97.673
397.18,53.282,147.18,97.7
397.54,53.206,147.09,97.634
397.74,53.035,147.75,98.074
397.83,53.031,148.1,98.307
398.4,53.232,148.04,98.269
398.28,52.944,148.57,98.618
398.4,52.99,148.77,98.754
398.16,52.674,149.04,98.93
398.09,52.53,149.15,99.003
398.16,52.6,149.28,99.088
398.35,52.826,149.24,99.063
398.25,52.728,149.31,99.109
398.15,52.783,149.4,99.17
397.97,52.452,149.42,99.183
398.04,52.701,149.37,99.151
398.06,52.582,149.3,99.108
398.51,52.881,149.22,99.053
398.51,52.802,149.31,99.109
398.7,53.008,148.9,98.842
398.46,52.764,148.94,98.865
398.1,52.661,149,98.906
398.39,52.579,148.94,98.868
398.59,52.597,148.9,98.837
399.52,53.638,148.62,98.656
399.76,53.557,148.26,98.414
399.8,53.847,147.84,98.133
400.22,53.794,147.82,98.124
400.48,54.018,147.6,97.973
400.81,54.293,148.06,98.284
400.81,54.147,147.84,98.138
400.6,54.009,147.51,97.913
401.01,54.131,147.68,98.03
400.93,54.334,147.54,97.937
400.74,54.478,147.97,98.225
400.82,54.605,147.81,98.117
401.06,54.948,146.27,97.096
401.32,55.126,145.67,96.693
400.93,54.789,145.71,96.724
401.02,55.206,146.02,96.925
400.86,55.158,145.93,96.866
400.97,55.486,145.93,96.868
400.83,55.451,145.99,96.904
400.39,55.353,146.1,96.979
400.48,55.363,145.83,96.802
400.6,55.54,145.66,96.687
400.25,55.367,145.39,96.507
400.42,55.665,145.11,96.321
400.51,55.706,144.91,96.192
400.17,55.823,144.88,96.173
400.19,55.872,144.52,95.932
400.02,55.727,144.54,95.947
400.04,55.793,144.91,96.188
399.47,55.481,145.07,96.294
398.9,55.598,145.21,96.389
398.91,55.518,145.6,96.648
398.37,55.426,145.72,96.725
398.33,55.488,145.95,96.883
397.8,55.213,146.22,97.059
397.34,55.305,145.91,96.853
397.22,55.472,146.21,97.054
396.63,55.143,146.55,97.278
396.24,55.256,146.72,97.395
396.01,55.165,147.03,97.6
396.06,55.534,147.34,97.804
395.51,55.703,146.87,97.494
395.78,56.169,146.86,97.486
396.17,56.472,146.51,97.252
396.85,57.302,145.18,96.37
397.5,57.751,143.71,95.391
397.58,57.706,143.17,95.035
397.99,58.025,142.63,94.68
397.88,57.922,142.71,94.728
397.21,58.003,143.4,95.191
396.95,57.946,143.67,95.368
397.18,58.162,143.72,95.399
396.94,57.786,143.44,95.216
397.07,57.872,143.86,95.495
397.11,57.788,143.43,95.209
397.55,57.836,142.85,94.82
397.03,58.264,142.96,94.895
397.1,58.521,143.08,94.976
397.11,58.534,142.94,94.88
396.94,58.53,143.09,94.985
396.77,58.367,143,94.921
396.56,58.256,143.21,95.064
396.27,58.364,143.13,95.011
396.02,58.258,143.16,95.026
395.81,58.412,143.18,95.043
395.56,58.4,143.56,95.295
395.71,58.855,143.5,95.253
395.51,58.679,143.79,95.446
394.95,58.208,144.4,95.849
394.7,58.277,144.56,95.957
394.82,58.429,144.78,96.104
394.88,58.327,144.83,96.134
394.52,58.182,145.03,96.268
394.63,58.09,145.28,96.438
394.59,57.996,146.25,97.078
395.08,58.038,145.83,96.8
395.51,58.25,145.37,96.494
395.66,58.204,145.86,96.819
395.92,58.284,145.91,96.856
396.61,58.495,145.47,96.562
396.9,58.539,145.3,96.447
397.44,58.757,145.16,96.354
397.83,58.918,144.92,96.198
397.86,58.617,144.92,96.2
397.96,58.429,144.93,96.205
398.48,57.96,144.21,95.729
399.08,58.057,143.91,95.527
399.23,57.93,143.23,95.077
398.97,57.953,143.24,95.084
399.16,58.564,143.82,95.466
398.56,58.469,145.14,96.341
398.73,58.468,145.35,96.484
398.61,58.36,145.69,96.705
398.53,58.201,146.03,96.931
398.8,58.299,145.2,96.382
398.79,58.133,145.73,96.734
399.19,58.28,145.08,96.304
399.04,57.993,144.96,96.227
399.06,57.709,145.28,96.436
400.13,57.772,144.93,96.203
399.6,57.542,145.47,96.559
399.57,57.876,145.47,96.562
399.55,57.945,145.36,96.487
399.99,58.241,145.36,96.487
400.1,58.247,145.37,96.493
400.56,57.846,145.27,96.426
400.72,57.981,145.27,96.429
400.78,58.359,145.02,96.266
400.55,58.146,144.77,96.1
400.95,58.472,144.57,95.963
401.14,58.567,144.28,95.769
400.83,58.265,144.22,95.731
401.29,58.649,144.08,95.638
400.96,58.432,144.95,96.215
400.95,58.364,144.6,95.985
400.85,58.37,145.29,96.442
400.72,58.485,145.21,96.39
400.87,58.437,145.05,96.285
401.27,58.47,144.03,95.606
401.57,58.753,143.56,95.297
401.26,58.643,143.61,95.326
401.28,58.434,143.49,95.251
401.5,58.38,143.19,95.046
400.89,58.037,143.25,95.088
401.07,58.094,143,94.924
401.38,58.052,142.13,94.347
401.26,57.358,141.39,93.854
401.51,57.769,141.27,93.776
401.71,58.083,141.47,93.906
401.46,58.186,140.88,93.518
401.74,58.056,140.75,93.429
402.16,58.571,140.47,93.246
402.18,58.133,140.42,93.209
402.07,57.977,140.61,93.336
403.07,58.585,140.57,93.309
402.96,58.491,140.6,93.331
403.25,58.592,140.34,93.158
403.22,58.452,140.71,93.404
403.6,58.598,141.12,93.671
403.46,58.259,141.19,93.722
403.81,58.318,142.16,94.367
404.15,58.345,141.52,93.937
404.02,57.9,141.64,94.017
404.57,57.847,142.12,94.338
404.59,57.859,142.3,94.458
405.2,58.144,142.45,94.559
405.07,57.777,142.89,94.85
405.58,57.977,142.93,94.874
405.86,57.775,143.35,95.155
405.96,57.891,142.86,94.831
406.55,58.019,142.63,94.677
406.31,57.437,142.77,94.771
406.74,57.353,142.44,94.551
407.33,57.549,142.25,94.424
407.42,57.208,142.5,94.589
408.02,57.619,142.45,94.559
408.24,57.479,142.1,94.328
408.5,57.467,141.75,94.094
408.99,57.458,141.81,94.134
409.24,57.676,141.82,94.142
409.32,57.727,141.58,93.982
409.01,57.689,141.53,93.948
408.83,57.56,141.45,93.893
409.01,57.601,141.37,93.842
409.39,57.84,141.51,93.931
409.1,57.608,141.44,93.888
409.12,57.597,141.52,93.938
409.02,57.574,141.59,93.984
409.09,57.562,141.8,94.123
409.45,57.837,142.08,94.313
409.11,57.529,142.01,94.268
409.15,57.594,142.02,94.273
409.01,57.471,142.23,94.41
409.09,58.053,142.04,94.284
408.98,57.937,141.88,94.176
409.05,58.393,142.27,94.435
408.84,58.415,142.57,94.636
408.89,58.242,142.57,94.637
408.77,58.532,142.57,94.635
408.68,58.596,142.65,94.689
408.63,59.006,142.61,94.662
408.74,59.013,142.46,94.561
408.76,59.524,142.66,94.698
408.61,59.087,142.4,94.522
408.34,59.266,142.98,94.912
408.42,59.359,143.36,95.159
408.08,58.904,143.82,95.47
407.87,58.888,144.25,95.753
407.9,59.253,144.43,95.871
407.62,58.849,144.54,95.947
408.28,59.061,144.39,95.843
408,58.657,144.43,95.87
408.09,58.84,144.14,95.682
408.54,59.038,143.8,95.454
408.65,58.885,144.03,95.607
408.87,59.062,143.96,95.557
409.02,58.978,143.08,94.974
409.59,59.086,142.75,94.754
409.62,58.686,142.62,94.673
409.54,58.536,142.56,94.631
409.95,58.722,142.6,94.656
410,58.641,142.54,94.617
410.08,58.698,143.03,94.941
410.11,58.809,143.21,95.059
410.03,58.677,143.43,95.206
409.77,58.901,144.07,95.631
409.97,58.739,143.78,95.44
409.46,58.56,143.6,95.32
409.73,58.709,143.53,95.277
409.86,58.626,143.42,95.202
409.99,58.599,143.63,95.339
409.87,58.618,143.7,95.39
409.6,58.528,143.04,94.95
410.22,58.248,143.63,95.343
409.95,58.698,143.93,95.542
409.47,58.716,143.04,94.952
410.15,58.861,142.59,94.65
410.01,58.648,142.09,94.318
410.48,58.345,142.41,94.528
411.33,59.081,142.76,94.766
411.3,59.07,142.85,94.82
411.11,58.946,143.45,95.224
411.38,59.312,143.76,95.426
411.02,59.131,143.86,95.494
410.99,58.967,144.06,95.627
411.32,59.335,143.97,95.565
411.03,59.16,144.12,95.668
411.45,59.425,143.83,95.476
411.34,59.139,143.81,95.46
411.31,58.948,143.79,95.444
411.44,59.091,143.51,95.258
411.74,59.187,143.61,95.328
411.79,59.108,143.68,95.374
411.79,59.243,143.46,95.23
411.87,59.095,143.43,95.21
412.13,59.348,143.22,95.067
411.85,59.098,142.81,94.799
412.03,59.229,142.35,94.491
412.09,59.286,142.68,94.71
411.83,59.019,142.51,94.599
411.85,59.329,142.77,94.771
411.71,59.146,142.5,94.588
411.55,59.296,142.93,94.877
411.37,59.214,143.3,95.12
410.63,58.776,143.82,95.469
410.48,58.879,143.94,95.545
410.25,58.64,144.21,95.728
410.29,58.727,144.42,95.866
409.92,58.548,144.53,95.938
409.67,58.456,144.8,96.12
409.75,58.591,144.86,96.155
409.38,58.331,144.71,96.057
409.34,58.298,144.72,96.066
409.15,58.279,144.53,95.939
408.66,58.217,144.06,95.629
408.64,58.253,143.91,95.527
408.31,58.464,143.58,95.309
407.9,58.484,143.62,95.337
407.49,58.2,143.14,95.018
407.62,58.021,142.53,94.61
407.64,58.189,142.32,94.471
407.72,58.063,142.05,94.289
407.12,57.514,141.6,93.996
407.16,57.71,141.7,94.057
407.21,57.587,141.66,94.034
406.86,57.722,141.93,94.215
406.91,57.967,142.02,94.274
406.42,58.065,141.78,94.115
406.47,58.333,142.3,94.459
406,58.184,142.61,94.66
405.36,57.822,142.53,94.613
405.18,58.203,143.12,94.999
404.61,57.942,143.81,95.458
404.53,57.875,143.34,95.146
404.1,57.783,143.66,95.359
404,57.729,143.86,95.496
403.72,57.736,143.83,95.471
403.61,57.686,143.94,95.548
403.52,57.597,144.14,95.679
403.43,57.479,144.53,95.941
403.18,57.409,144.33,95.803
403.02,57.358,144.41,95.857
402.88,57.201,144.54,95.944
402.73,57.093,144.58,95.972
402.79,57.206,144.52,95.934
402.25,57.19,144.5,95.92
401.72,57.067,144.76,96.089
401.4,57.387,145.16,96.355
401.13,57.491,145.28,96.437
401.15,57.53,144.86,96.159
401.03,57.502,144.45,95.888
401.12,57.427,144.34,95.812
401.01,57.328,144.39,95.846
400.98,57.379,144.11,95.662
401.16,57.565,144.26,95.76
400.56,57.08,144.4,95.851
400.46,57.114,144.52,95.933
400.26,56.931,144.7,96.054
400.22,56.89,145.33,96.467
400.01,56.878,145.61,96.657
399.55,56.653,145.71,96.719
399.61,56.785,145.58,96.638
399.23,56.52,145.75,96.745
399.14,56.297,146.2,97.046
398.89,55.856,146.13,97.003
398.89,55.808,146.49,97.236
399.42,55.568,146.94,97.538
399.32,55.112,147.16,97.681
399.11,54.347,147.47,97.887
399.19,53.859,147.85,98.143
398.52,52.959,147.71,98.049
397.89,52.868,147.64,98.004
397.27,52.559,147.58,97.963
395.97,51.865,147.77,98.09
393.32,50.467,148.27,98.421
390.83,49.743,148.93,98.861
388.26,48.437,149.51,99.244
386.53,47.202,149.45,99.201
384.53,46.489,149.63,99.325
382.19,45.888,150.49,99.893
378.98,44.343,150.85,100.13
377.25,43.865,151.59,100.62
374.53,43.698,151.81,100.77
372.01,42.595,151.99,100.89
369.1,41.651,152.65,101.33
364.46,40.737,154.01,102.23
361.92,39.961,154.14,102.32
360.1,40.314,155.3,103.09
357.31,39.667,155.28,103.07
355.31,39.58,155.48,103.2
353.26,38.669,155.43,103.17
352.28,37.778,155.33,103.11
351.49,37.548,155.42,103.17
350.65,37.219,155.45,103.19
349.75,36.707,155.71,103.36
348.2,36.083,155.43,103.17
348.61,36.099,156,103.55
348.5,35.949,156.33,103.77
348.31,35.663,156.1,103.62
349.03,35.52,156.71,104.02
348.87,35.223,156.76,104.06
349.76,34.905,156.65,103.98
351.48,35.129,156.96,104.19
353.12,35.411,157.63,104.64
355.36,35.094,158.62,105.29
358.06,35.157,158.59,105.27
361.91,34.874,158.91,105.48
366.24,35.467,159.52,105.89
370.55,35.398,159.62,105.95
376.66,36.232,160.27,106.39
380.93,37.114,161.44,107.16
383.68,37.409,161.55,107.24
391.02,38.304,161.87,107.45
394.9,39.047,162.55,107.9
399.98,38.51,162.3,107.74
406.46,37.759,162.65,107.97
413.54,36.303,162.11,107.61
416.68,36.547,162.25,107.7
420.4,34.431,161.95,107.5
425.95,33.841,162.71,108
432.6,30.973,161.82,107.41
434.46,31.839,161.21,107.01
439.21,30.385,160.21,106.35
441.6,31.247,159.44,105.83
443.34,31.247,159.36,105.78
445.48,31.525,159.31,105.75
447.04,31.539,159.28,105.73
447.5,31.686,159.83,106.09
448.6,31.886,159.7,106.01
448.77,32.005,159.39,105.8
449.66,32.518,159.46,105.85
450,32.518,160.22,106.35
450,32.816,160.06,106.24
450.77,33.64,160,106.2
451.51,35.067,159.9,106.14
451.43,36.09,160.58,106.59
450.61,38.349,161.29,107.06
449.9,41.02,160.84,106.77
449.45,43.362,160.02,106.22
448.97,45.347,160.06,106.25
446.29,50.154,159.67,105.99
443.45,52.71,160.13,106.29
441.16,54.266,159.99,106.2
438.03,56.017,161.67,107.31
434.53,56.242,162.63,107.96
432.71,54.554,163.73,108.68
431.12,54.158,164.42,109.14
430.83,54.445,165.05,109.56
429.49,53.502,166.25,110.36
428.84,52.484,167.46,111.16
427.83,51.785,168.49,111.84
427.24,50.779,169.39,112.44
425.72,49.561,170.17,112.96
425.36,49.538,170.08,112.89
425.39,49.426,170.04,112.87
425.75,50.512,170.25,113.01
424.59,50.738,169.3,112.38
424.36,50.308,169.41,112.46
424.36,50.977,169.75,112.68
425.32,53.621,170.1,112.91
424.24,53.275,170.77,113.36
425.78,56.332,170.79,113.37
426.05,56.577,171.66,113.95
425.91,56.198,171.52,113.86
427.44,57.506,171.05,113.54
429.32,59.593,170.35,113.08
430.12,59.806,169.3,112.38
431.49,60.742,168.54,111.88
433.27,62.546,167.94,111.48
433.58,62.22,166.78,110.71
435.13,62.977,164.54,109.22
435.64,62.652,162.83,108.09
436.15,62.789,161.33,107.09
435.09,60.486,160.42,106.49
435.16,58.062,159.03,105.56
434.94,54.922,157,104.22
435.78,53.221,155.42,103.17
435.96,52.465,154.47,102.54
435.52,52.557,152.93,101.51
435.35,53.889,151.73,100.72
434.72,56.926,149.94,99.529
433.03,61.554,149.01,98.911
432.3,64.06,149.06,98.948
431.79,67.716,149.39,99.164
429.45,68.634,149.86,99.479
430.7,69.114,150.73,100.05
412.31,85.734,150.02,99.581
407.58,91.688,149.7,99.37
403.07,98.489,150.11,99.642
399.76,101.46,151.77,100.74
385.06,120.63,152.53,101.25
374.65,120.99,153.17,101.67
367.22,123.43,153.39,101.82
358.88,126.71,152.92,101.5
351.59,128.52,153.85,102.12
341.19,130.88,154.14,102.31
333.61,132.11,154.69,102.68
329.92,131.79,156.6,103.95
322.53,130.49,157.01,104.22
321.2,130.28,157.17,104.33
310.21,129.27,156.99,104.21
305.56,128.28,156.42,103.83
303.12,127.8,155.74,103.38
300.59,126.65,155,102.89
298.51,125.66,154.16,102.33
296.97,126.53,153.09,101.62
295.77,126.03,152.33,101.12
296.37,125.32,150.46,99.876
296.49,125.45,149.56,99.275
295.87,124.53,148.7,98.706
296.79,125.18,147.89,98.168
296.25,125.51,147.64,98.001
297.44,126.29,147.35,97.811
297.28,126.6,147.05,97.609
297.52,127.82,147.25,97.742
296.62,128.61,146.7,97.376
296.06,130.42,146.28,97.099
299.35,130.9,144.81,96.127
301.56,130.53,143.65,95.355
302,131.2,142.6,94.658
302.34,131.97,141.53,93.947
302.96,132.65,140.09,92.994
305.4,133.44,138.41,91.875
306.26,134.44,136.67,90.721
305.84,135.05,136.01,90.279
305.43,135.85,135.14,89.704
307.06,136.94,134.43,89.236
308.56,137.31,133.75,88.779
309.75,137.35,132.49,87.944
311.59,137.57,132,87.621
313.53,137.48,131.44,87.25
315.54,137.72,130.92,86.907
314.9,138.08,130.56,86.663
315.41,138.02,131.4,87.224
314.23,137.93,131.99,87.615
314.2,138.01,132.75,88.121
314.97,137.33,133.62,88.699
316,136.99,133.35,88.515
315.75,137.58,133.88,88.87
315.92,137.37,134.44,89.239
314.95,137.68,134.85,89.513
313.96,137.49,134.86,89.522
314.31,137.47,135.09,89.67
314.57,137.86,135.53,89.962
314,137.68,135.98,90.266
312.87,137.38,136.58,90.663
312.7,137.51,136.72,90.754
312.96,137.93,136.62,90.687
312.27,137.6,136.8,90.806
312.72,138.35,136.86,90.845
312.45,137.98,136.64,90.702
312.13,138.12,136.25,90.443
312.43,138.55,135.72,90.09
312.66,139.07,135,89.614
312.82,139.42,134.5,89.283
313.55,140.33,133.55,88.652
313.53,141.02,132.67,88.067
313.53,141.74,131.51,87.296
313.91,142.44,130.99,86.953
314.44,142.83,130.16,86.398
315.05,143.31,129.26,85.802
315.36,143.41,128.57,85.342
315.62,143.53,127.75,84.799
316.04,143.63,127.48,84.619
316.02,143.94,127.02,84.317
317.51,145.07,125.48,83.292
318.49,146.38,123.66,82.082
318.47,146.26,122.55,81.345
319.62,146.83,121.07,80.367
319.71,147.33,119.58,79.374
320.34,147.35,117.31,77.869
320.78,147.76,115.71,76.81
321.47,147.97,114.06,75.715
321.89,148.22,112.24,74.507
322.36,148.44,111,73.684
322.55,149.01,109.6,72.754
322.57,149.32,109.29,72.544
321.8,149.19,108.73,72.177
321.78,149.12,108.7,72.157
321.38,149.35,109.3,72.55
320.54,148.42,109.85,72.917
320.52,148.92,110.42,73.294
319.96,148.48,110.3,73.219
319.83,148.7,110.45,73.319
319.21,148.43,111.25,73.846
318.05,148.1,113.16,75.115
318.01,148.4,114.55,76.04
317.25,147.48,115.53,76.689
316.78,147.68,116.48,77.318
316.48,147.94,117.78,78.182
316.14,147,119.84,79.547
316.77,146.77,121.79,80.84
317.17,146.03,122.63,81.401
317.94,145.59,124.49,82.637
317.54,144.32,126.93,84.252
316.79,143.5,128.7,85.432
316.67,142.89,130.26,86.468
316.47,142.36,131.46,87.265
315.91,141.97,132.56,87.99
315.87,141.84,133.16,88.393
316.22,142.01,133.1,88.348
316.52,142.21,132.6,88.017
316.64,142.05,132.32,87.835
317.19,142.39,132.42,87.899
316.93,141.91,132.31,87.825
317.11,142.3,132.29,87.811
317.29,142.16,132.58,88.008
316.11,141.07,133.3,88.486
316.19,141.51,133.59,88.673
315.39,140.58,134.75,89.447
314.43,139.76,135.96,90.249
313.42,139.62,136.2,90.411
313.67,139.8,136.41,90.545
313.23,138.5,136.93,90.894
312.76,137.59,137.71,91.413
312.5,137.12,138.41,91.873
312.19,137.64,139.08,92.32
311.49,137.03,140.11,93.002
310.52,136.68,141.71,94.066
310.76,136.03,142.01,94.264
310.87,135.51,142.3,94.455
312.86,135.41,141.29,93.79
310.03,135.75,141.18,93.715
309.78,139.96,139.44,92.559
310.85,138.21,139,92.27
311.25,139.76,138.41,91.873
312.21,140.38,137.95,91.568
310.45,139.55,138.02,91.617
310.93,139.18,137.75,91.437
311.15,139.64,137.32,91.15
311.7,139.23,136.52,90.624
308.17,137.98,135.84,90.171
306.79,137.93,135.18,89.734
307.15,139.83,135.15,89.713
304.79,140.01,134.69,89.41
304.4,138.59,134.19,89.076
307.37,139.25,133.84,88.841
309.45,139.49,133.39,88.542
309.59,141.11,133.07,88.333
307.42,141.2,133.06,88.323
305.83,140.47,132.73,88.106
306.34,139.04,132.96,88.258
309.26,137.72,133,88.286
308.89,137.36,132.75,88.118
311.19,134.57,134.28,89.133
310.46,132.66,135.92,90.221
310.18,134.7,135.77,90.12
310.3,136.08,136.89,90.865
310.09,137.46,137.59,91.329
309.8,137.16,137.99,91.598
310.01,137.68,138.93,92.218
309.45,138.13,139.42,92.549
309.28,138.12,140.05,92.964
309.35,138.22,141.14,93.691
309.18,137.86,142.58,94.646
309.83,137.63,143.12,95.002
311.01,137.63,143.75,95.419
310.39,137.63,144.34,95.811
310.03,137.61,145.03,96.27
310.66,137.55,144.65,96.018
311.06,137.68,144.13,95.671
310.97,137.68,143.84,95.477
310.93,137.01,144.32,95.802
311.77,136.83,144.69,96.043
310.99,137.24,144.97,96.23
311.07,137.33,144.86,96.154
310.87,137.14,145.25,96.415
311.56,136.98,144.94,96.21
311.94,136.49,144.76,96.093
311.79,136.98,144.71,96.055
312.08,137.04,144.49,95.914
312,137.37,144.2,95.717
312.26,137.97,143.5,95.252
312.93,138.41,142.81,94.795
312.79,138.54,142.5,94.588
313.08,139.19,142.26,94.432
313.31,138.7,142.18,94.376
313.32,138.66,142.16,94.367
313.27,138.6,142.46,94.564
313.37,138.87,142.16,94.367
314.13,138.73,141.57,93.976
314.23,138.89,141.17,93.708
315.03,139.3,140.76,93.433
315.72,138.98,140.73,93.414
316.06,138.92,141.29,93.785
316.05,138.22,142.36,94.499
317.11,137.69,143.55,95.289
318.56,137.53,143.18,95.04
319.53,136.43,144.12,95.665
321.99,137.48,143.32,95.134
323.99,137.8,142.83,94.808
327.53,138.55,141.95,94.225
329.89,139.22,141.38,93.846
332.84,138.88,141.44,93.889
335.5,139.01,140.71,93.405
339.18,139.05,141.09,93.656
343.87,138.27,141.25,93.763
349.18,137.94,141.81,94.133
351.6,138.58,142.63,94.679
357.38,138.45,141.72,94.07
364.12,138.26,141.6,93.993
372.96,137.38,142.03,94.276
375.93,138.52,141.4,93.861
380.28,138.81,141.8,94.126
383.53,138.99,141.85,94.159
385.75,139.91,142.58,94.644
390.63,139.7,143.01,94.932
388.31,140.69,142.62,94.673
386.89,140.01,143.13,95.008
386.61,140.37,143.41,95.198
385.74,140.76,143.78,95.438
386.3,140.67,144.01,95.593
386.78,140.36,143.8,95.455
386.87,140.42,143.78,95.443
386.92,140.23,143.79,95.443
387.27,140.19,143.63,95.339
387.34,139.94,143.55,95.287
387.52,140.02,143.23,95.073
387.31,140.07,143.14,95.016
387.07,139.75,142.89,94.85
387.27,140.35,143.09,94.982
387.25,140,143.26,95.093
386.7,140.07,143.43,95.207
386.58,140.45,143.6,95.321
386.99,140.89,143.46,95.228
387.63,140.66,142.95,94.891
387.45,140.82,142.56,94.628
386.81,141.66,141,93.597
385.59,141.51,140.23,93.082
387.21,140.86,138.39,91.862
386.33,141,137.59,91.333
385.24,141.65,136.95,90.904
382.62,143.06,138.35,91.839
382.57,143.43,139.07,92.312
381.97,143.25,139.63,92.686
381.69,143.18,139.89,92.859
381.2,142.25,140.14,93.026
382.1,142.83,140.1,92.999
382.66,142.75,140.3,93.128
382.85,142.14,140.55,93.293
384.75,140.73,140.12,93.01
386.76,140.21,139.19,92.395
386.86,139.66,138.39,91.861
386.97,140.31,138.46,91.908
386.57,140.39,138.84,92.163
385.33,140.79,139.42,92.548
384.38,141.11,140.48,93.251
384.37,141.64,140.96,93.566
383.7,142.06,141.94,94.217
383.42,142.52,143.72,95.401
382.49,142.12,144.46,95.89
382.13,142.17,145.87,96.825
382.08,142.35,146.44,97.208
381.82,142.59,146.98,97.563
381.39,142.2,147.51,97.916
381,142.19,147.83,98.13
380.59,141.47,148.12,98.318
381.24,141.98,148.38,98.496
380.57,141.2,148.71,98.713
380.6,141.62,149.1,98.97
380.37,141.3,149.6,99.3
379.51,140.86,150.57,99.947
379.09,140.53,151.64,100.66
378.87,140.82,152.57,101.28
378.53,140.72,154.17,102.34
377.17,140.63,156.27,103.73
376.21,140.21,157.31,104.42
375.57,139.94,158.41,105.15
375.93,139.71,158.52,105.22
376.12,139.46,158.67,105.32
376.45,139.62,158.97,105.53
375.94,138.68,159.71,106.02
375.83,138.82,160.27,106.39
375.25,138.52,161.14,106.96
374.21,137.84,162.53,107.88
373.19,137,164.22,109.01
373.48,137.28,166.55,110.55
373.07,137.19,168,111.52
371.87,136.39,169.1,112.24
374.03,136.12,169.2,112.31
374.58,136.1,169.15,112.28
375.2,135.61,169.29,112.38
376.16,135.79,168.83,112.07
377.25,136.62,169.04,112.21
376.7,135.76,168.19,111.64
376.94,136.2,167.1,110.92
377.27,136.41,166.04,110.22
378.4,136.58,164.66,109.3
379.43,136.53,163.6,108.59
381.08,136.33,162.89,108.13
381.52,137.2,163.76,108.7
383.33,135.41,162.94,108.16
383.45,136.44,163.01,108.2
384.14,137.09,162.92,108.14
384.76,137.2,162.18,107.66
384.81,137.86,161.09,106.93
385.21,138.18,161.97,107.52
386.06,138.79,161.43,107.15
382.93,138.9,160.64,106.63
377.29,139.61,160.07,106.25
373.73,140.1,159.4,105.81
368.84,140.33,159,105.55
362.06,140.57,158.53,105.23
356.32,141.14,158.63,105.3
347.33,141.47,158.03,104.9
341.92,141.73,157.12,104.3
337.99,141.74,156.33,103.77
333.27,141.35,155.82,103.43
329.19,141.12,153.99,102.22
324.04,139.88,152.3,101.1
320.26,139.56,151.66,100.67
317.5,139.39,149.81,99.44
315.25,139.54,149.52,99.253
312.39,138.63,148.63,98.662
310.8,138.66,147.42,97.859
309.82,138.15,146.91,97.518
309.79,138.39,145.88,96.835
309.41,138.38,144.23,95.737
308.89,138.11,143.73,95.404
307.83,137.96,142.52,94.601
308.49,137.99,141.55,93.959
309.54,137.73,140.16,93.04
310.71,138.16,138.77,92.115
310.97,137.79,137.57,91.316
311.55,137.65,136.79,90.802
312.83,138.36,135.48,89.929
312.74,137.92,135.08,89.667
314.35,138.29,134.42,89.23
313.76,138,134.16,89.055
313.42,137.6,134.02,88.964
314.14,137.92,134.02,88.959
314.26,137.79,133.93,88.901
314.08,137.79,134.02,88.961
313.6,137.53,134.62,89.357
313.18,137.87,134.51,89.287
313.03,137.84,134.87,89.523
311.62,137.16,136.16,90.381
312.5,137.85,136.24,90.434
312.34,137.84,136.49,90.599
311.18,137.7,136.92,90.888
311.32,137.87,138,91.603
310.85,137.51,139.5,92.597
310.05,137.31,140.81,93.47
308.98,137,142.3,94.457
308.09,136.78,144.21,95.726
307.14,136.37,145.98,96.903
305.52,136.29,147.6,97.978
305.51,136.38,148.83,98.792
305.03,135.96,149.48,99.225
304.77,135.67,150.28,99.752
305.27,135.11,151.59,100.62
305.19,135.4,152.45,101.2
305.36,134.98,152.99,101.55
304.98,134.55,153.52,101.9
305.5,135.91,152.98,101.55
305.6,136.31,153.35,101.79
306.23,136.47,153.22,101.71
307.1,137.41,152.84,101.45
308.31,136.32,151.62,100.64
309.29,137.09,150.66,100.01
309.92,136.84,149.84,99.466
311.1,137.53,149.12,98.987
311.57,137.28,148.6,98.638
311.75,137.3,148.21,98.381
311.81,137.39,147.78,98.095
311.76,138.08,146.42,97.19
312.26,139.97,143.83,95.475
312.6,140.89,141.16,93.703
313.89,142.24,139.58,92.652
314.29,143.66,137.4,91.208
312.65,145.54,135.95,90.24
312.05,146.42,134,88.947
311.26,148.1,131.75,87.452
309.21,149.13,128.79,85.487
309.25,150.21,125.86,83.544
305.97,151.39,123.57,82.027
310.25,151.3,121.97,80.961
311.75,152.29,120.86,80.228
314.01,152.27,120.13,79.743
310.16,152.73,119.29,79.184
313.03,153.13,119.19,79.117
314.49,153.31,118.83,78.875
314.21,153.85,117.78,78.182
315.67,153.37,115.96,76.976
319.47,154.3,116.02,77.012
320.01,155.36,115.45,76.637
320.86,155.53,114.07,75.717
320.83,155.24,112.21,74.484
320.64,155.07,110.59,73.411
320.9,155.37,109.16,72.461
320.94,154.65,108.33,71.911
319.91,155.1,107.97,71.669
320.43,155.41,108.35,71.924
320.74,154.73,108.83,72.238
321.09,154.15,109.4,72.621
320.47,153.64,110.19,73.146
320.63,153.4,110.75,73.515
320.95,153.29,110.95,73.646
320.9,152.7,111.76,74.188
320.43,152.52,112.34,74.574
320.75,152.24,112.87,74.921
321.85,151.61,113.75,75.504
322.29,152.68,114.13,75.76
322.08,152.28,114.46,75.98
321.84,152.34,114.32,75.886
322.48,153.07,113.8,75.539
322.54,152.76,113.37,75.253
322.69,152.67,113.24,75.171
322.64,152.8,113.19,75.132
322.6,153.39,113.36,75.246
321.2,153.24,113.99,75.666
320.72,152.52,115.03,76.356
320.15,152.32,116.08,77.055
319.57,151.62,117.56,78.038
319.07,151.64,118.86,78.899
318.58,151.02,120.15,79.752
317.86,149.76,121.49,80.645
318.17,149.55,122.58,81.369
317.64,148.89,124.53,82.663
316.74,148.33,125.45,83.276
316,148.34,127.21,84.44
316.18,148.44,128.27,85.143
316.04,148.32,130.56,86.664
315.82,147.23,133.44,88.58
316.31,147.15,134.76,89.455
316.73,146.58,135.17,89.723
317.64,146.74,136.11,90.351
318.55,146.32,137.05,90.973
319.52,145.79,136.66,90.713
320.12,145.92,137.52,91.286
320.34,145.75,136.93,90.892
321.47,146.09,136.26,90.446
322.43,146.48,136.75,90.775
324.1,145.48,137.73,91.425
324.39,145.94,137.5,91.269
325.35,145.79,137.37,91.189
326.35,146.59,137.36,91.179
327.07,146.69,137.42,91.221
328.07,146.94,136.68,90.725
329.23,146.88,136.05,90.306
329.79,146.87,134.9,89.543
331.27,147.24,134.16,89.054
332.33,147.51,133.71,88.758
332.9,147.58,132.85,88.185
333.86,148.4,132.32,87.831
334.4,148.88,131.53,87.307
334.31,148.57,131.29,87.148
334.63,149.01,131.1,87.024
335.15,149.84,130.54,86.65
335.33,150.59,130.09,86.356
335.47,151.07,130.07,86.343
335.63,151.05,130.02,86.303
335.61,151.3,130.27,86.475
336.06,151.19,130.56,86.667
335.98,151.65,130.71,86.767
335.92,151.5,131.52,87.301
335.63,151.14,132.1,87.688
335.68,151.12,132.42,87.901
335.1,150.99,133.26,88.455
334.4,150.51,134.56,89.322
333.5,149.81,137.78,91.457
332.47,149.03,141.18,93.711
331.85,147.87,144.14,95.679
330.86,146.18,147.31,97.787
330.18,145.31,148.84,98.8
331.19,144.73,148.78,98.761
330.56,144.45,148.39,98.502
330.51,144.19,147.52,97.922
330.95,144.1,147.14,97.668
330.11,143.52,146.65,97.347
329.22,143.53,145.91,96.855
328.31,143.72,144.9,96.183
327.49,143.27,144.9,96.184
326.38,143.13,145.27,96.428
325.49,143.07,145.51,96.587
323.47,142.74,146.15,97.014
321.38,142.57,146.93,97.532
321.78,142.71,147,97.577
321.78,143,146.05,96.947
322.91,143.31,144.14,95.682
324.39,143.77,142.29,94.453
325.42,144.46,139.78,92.783
326.23,144.7,136.98,90.926
327.27,145.65,134.06,88.987
328.43,146.41,131.7,87.422
328.52,146.79,129.45,85.93
327.98,147.32,127.68,84.751
328.92,147.81,126.38,83.892
328.83,147.95,125.51,83.312
329.12,148.27,124.96,82.948
328.95,148.57,124.31,82.516
328.95,148.82,123.78,82.165
328.4,148.93,123.62,82.058
327.8,148.85,123.52,81.992
327.44,148.77,123.42,81.928
326.95,148.89,123.79,82.174
327.05,149.42,123.88,82.233
326.49,149.25,124.38,82.564
325.79,149.26,124.97,82.955
325.29,149.2,125.57,83.353
324.51,148.89,126.61,84.04
323.73,148.32,127.74,84.79
322.64,147.83,129.71,86.098
321.99,147.14,131.04,86.983
321.47,146.7,132.68,88.073
320.62,145.6,134.73,89.431
319.99,144.88,136.44,90.567
319.49,144.18,137.88,91.527
319,143.87,140.22,93.079
318,143.32,141.65,94.029
317.02,142.53,143.55,95.285
316.6,142.11,145.18,96.372
315.8,141.74,146.37,97.161
315.43,141.25,147.25,97.744
314.75,141.3,147.3,97.775
314.45,141.02,147.2,97.708
314.32,141.21,147.09,97.639
314.04,141.29,146.98,97.564
314.14,141.47,146.75,97.41
314.02,141.48,145.74,96.742
314.33,141.63,145.44,96.544
314.09,141.43,145.26,96.42
314.12,141.54,145.26,96.42
314.14,141.51,145.25,96.418
314.07,141.57,145.13,96.334
314.11,141.52,145.11,96.326
313.77,141.43,145.49,96.575
313.74,141.38,145.08,96.301
314,141.45,144.96,96.223
313.94,141.15,145.56,96.622
313.7,141.08,146.08,96.967
314.07,141.23,145.7,96.714
314.64,141.37,145.14,96.343
315.27,141.78,143.99,95.578
315.51,142.07,143.58,95.309
315.43,142.09,143.17,95.035
315.09,141.83,143.35,95.154
314.9,141.91,143.43,95.208
315.17,142.24,143.34,95.147
315.01,142.05,142.65,94.691
315.43,142.2,141.88,94.18
315.03,141.88,143.13,95.012
314.72,141.46,143.2,95.056
314.6,141.06,144.27,95.766
314.16,140.73,144.62,95.998
314.13,140.71,145.51,96.586
313.67,140.62,145.58,96.634
313.32,140.21,146.56,97.284
313.11,140.13,146.98,97.562
312.93,140.11,147.43,97.862
312.65,140.07,147.85,98.139
311.92,139.85,147.87,98.155
311.61,139.66,148.2,98.373
312.01,140.26,148.43,98.53
311.13,139.83,148.36,98.484
311.09,139.91,148.61,98.648
310.65,139.75,149.75,99.4
310.28,139.65,150.57,99.949
309.68,139.16,150.75,100.07
310.09,139.29,150.56,99.943
309.61,138.98,150.46,99.873
310.02,139.45,150.27,99.749
309.8,138.87,150.42,99.847
309.63,139.05,150.55,99.937
308.85,138.68,150.88,100.16
309.12,138.57,151.23,100.38
308.35,137.7,151.55,100.6
308.42,138.03,151.84,100.79
307.98,137.21,152.23,101.05
308.32,137.23,152.22,101.04
308.3,137.17,152.5,101.23
308.67,137.68,152.68,101.35
308.51,137.79,152.94,101.52
307.79,137.69,152.87,101.47
307.64,137.96,152.78,101.41
307.29,137.87,153.19,101.69
308.25,138.47,152.8,101.43
307.34,138.22,152.94,101.52
307.37,138.33,152.66,101.34
308.4,138.71,152.47,101.21
308.29,138.87,152.35,101.13
308.16,138.57,151.95,100.87
308.53,139.45,151.75,100.73
308.2,139.17,151.35,100.46
308.41,139.95,150.87,100.14
308.66,140.22,150.39,99.83
308.83,140.53,149.88,99.491
308.61,140.62,149.83,99.459
308.74,140.66,149.85,99.467
308.6,140.55,150.18,99.69
308.7,140.45,149.89,99.494
308.83,140.79,149.43,99.188
308.82,141,148.34,98.466
309,141.38,147.24,97.738
309.09,142.06,145.56,96.621
309.4,142.11,144.56,95.959
309.34,142.99,143.31,95.128
309.27,143.38,141.89,94.187
309.32,144,140.49,93.259
309.25,144.9,138.37,91.848
309.94,145.65,136.88,90.858
309.59,146.3,135.88,90.194
309.54,146.22,134.3,89.148
309.57,146.4,133.24,88.444
309.92,146.11,132.43,87.903
309.94,146.61,131.33,87.175
309.75,147.15,130.21,86.43
309.34,147.18,130.26,86.465
309.71,146.86,129.89,86.22
310.26,146.35,130.72,86.772
309.88,145.94,131.66,87.395
310.08,145.72,133.37,88.529
309.89,145.35,135.19,89.738
309.49,145.06,137.11,91.012
308.51,143.81,138.89,92.192
308.31,143.12,140.85,93.497
308.04,141.96,143.54,95.28
307.59,141.34,145.53,96.603
306.8,140.66,147.2,97.712
305.95,139.98,149.34,99.133
305.69,139.66,150.31,99.778
305.91,139.58,150.97,100.21
305.5,139.4,151.5,100.56
305.15,139.24,152.21,101.04
304.92,138.76,152.22,101.04
305.12,138.74,152.23,101.05
305.28,138.82,152.23,101.05
305.46,138.72,152.36,101.14
306.14,138.48,151.97,100.88
306.27,139,152.21,101.03
306.2,138.64,152.26,101.07
306.55,138.72,152.16,101
307.45,138.91,151.86,100.8
307.3,138.78,151.93,100.85
307.41,139.02,152.87,101.47
307,138.6,152.86,101.47
306.74,138.35,153.86,102.13
306.82,138.44,154.27,102.4
307.43,139,154.5,102.56
307.42,138.48,154.28,102.41
308.18,138.81,154.65,102.66
308.48,138.77,154.01,102.23
308.65,138.9,153.67,102.01
308.82,139.18,154.34,102.45
308.87,139.13,154.53,102.57
308.72,138.71,154.26,102.4
309.42,139.32,154.01,102.23
308.93,138.98,153.91,102.16
308.83,138.97,154.14,102.32
309.03,138.86,155.2,103.02
309.01,138.76,154.56,102.6
308.5,138.37,154.91,102.83
308.54,138.37,155.41,103.16
308.29,138.35,155.47,103.2
307.85,138.48,155.42,103.17
307.45,138.54,155.15,102.99
306.49,138.21,155.01,102.89
305.72,137.72,155.99,103.55
306.15,138.38,155.61,103.29
305.39,138.06,155.22,103.04
304.84,138.18,155.64,103.31
305.19,138.47,154.27,102.4
305.27,138.83,154.52,102.57
305.01,138.93,153.61,101.96
305.44,139.53,153.09,101.62
305.42,139.83,152.54,101.26
305.4,140.18,151.76,100.73
304.51,139.74,152.03,100.91
305.18,140.55,151.81,100.77
304.67,140.02,151.97,100.88
305.06,140.46,152.36,101.13
304.73,139.94,152.13,100.98
305.47,140.51,151.74,100.72
305.35,140.08,151.59,100.63
305.38,140.09,151.68,100.68
305.25,139.78,151.77,100.75
305.31,139.69,151.93,100.85
305.46,140.09,152.58,101.28
305.12,139.84,153.35,101.79
304.8,139.31,153.36,101.8
304.67,139.26,153.49,101.88
304.52,139.38,153.5,101.9
304.09,139.29,153.91,102.16
304.27,139.64,153.46,101.87
304.17,139.62,153.59,101.95
304.74,139.58,154.06,102.26
303.76,139.51,154.29,102.41
303.76,139.89,154.69,102.68
303.31,139.41,155.17,103
302.85,139.11,155.5,103.22
302.73,139.34,156,103.55
302.73,139.48,155.94,103.51
302.58,139.79,155.59,103.28
301.92,138.96,155.69,103.35
301.67,139.08,155.73,103.38
301.67,139.26,155.42,103.17
301.65,139.56,155.97,103.53
301.42,139.45,156.34,103.78
301.04,139.04,156.23,103.71
300.78,138.99,156.03,103.57
300.71,138.74,156.31,103.76
300.57,138.78,156.25,103.72
300.15,138.88,156.04,103.58
300.49,138.89,156.59,103.94
300.6,138.95,156.64,103.98
300.35,138.95,156.74,104.04
300.27,138.75,156.39,103.81
300.66,139.3,156.41,103.82
300.65,139.23,156.39,103.81
300.8,138.94,156.49,103.88
301.01,139.15,156.34,103.77
300.83,138.77,156.14,103.64
300.81,138.73,155.76,103.4
301.21,139.22,155.07,102.94
301.2,139.4,154.27,102.4
301.68,140.03,153.97,102.21
301.71,139.76,153.18,101.68
302.29,140.19,153.46,101.87
302.02,139.55,153.75,102.06
302.46,140.25,153.66,102
302.57,140.08,153.94,102.19
302.22,139.65,153.65,101.99
302.79,140.28,153.4,101.83
302.48,139.85,153.06,101.6
303.17,140.54,152.6,101.29
303.34,140.5,152.5,101.23
303.37,140.59,152.42,101.18
302.97,140.02,152.33,101.12
303.12,140.14,152.07,100.94
303.44,140.63,152.41,101.17
302.94,139.93,152.51,101.23
303.2,140.47,152.73,101.38
302.68,140.02,153.38,101.81
302.28,139.58,153.99,102.22
302.24,139.53,154.31,102.43
302.45,139.94,154.71,102.7
302.54,139.84,154.91,102.83
302.39,139.79,155.17,103
301.95,139.28,155.18,103.01
301.64,139.12,155.67,103.33
301.37,139.08,156.13,103.64
301.24,138.94,156.37,103.8
301.29,139.06,156.35,103.79
301.29,139.05,156.18,103.67
301.3,139.05,155.82,103.44
301.92,139.64,155.42,103.16
301.87,139.65,155.3,103.09
302.03,139.77,154.83,102.77
301.93,139.59,154.94,102.85
301.9,139.56,154.67,102.67
301.86,139.51,154.21,102.36
302.09,139.87,154.07,102.27
301.96,139.49,153.57,101.94
301.89,139.67,154.3,102.42
301.63,139.18,155.22,103.04
301.37,138.93,155.03,102.91
301.29,138.95,154.81,102.76
301.37,139.2,155.44,103.18
301.69,139.43,155.07,102.93
301.32,138.89,154.89,102.81
301.49,139.22,155.14,102.98
301.26,138.88,154.97,102.87
301.41,139.26,155.21,103.03
301.6,139.3,154.52,102.57
302.38,139.8,152.66,101.33
303.16,140.53,151.7,100.7
303.54,140.27,150.53,99.921
302.98,140.32,151.03,100.25
302.43,140.26,151.73,100.72
303.02,140.45,150.3,99.766
303.25,140.82,150.35,99.803
303.38,141.36,149.62,99.315
304.2,141.47,147.67,98.022
305.24,141.24,145.66,96.686
305.84,141.86,143.39,95.18
304.91,141.84,145.15,96.347
303.46,142.4,146.66,97.352
301.71,142.12,149.08,98.957
302.26,142.39,148.96,98.882
301.72,140.82,150.13,99.657
301.37,139.76,150.81,100.11
300.9,139,152.27,101.08
300.46,138.53,153.3,101.76
299.29,138.02,155.6,103.29
298.88,137.9,156.75,104.05
298.71,138.37,157.33,104.44
298.37,138.69,157.7,104.68
298.12,139.2,158.91,105.48
297.26,138.88,160.37,106.45
297.98,139.06,160.07,106.25
298.86,138.2,158.45,105.18
300.64,138.01,155.89,103.48
302.39,139.46,153.5,101.9
302.79,139.1,152.46,101.2
303.04,139.72,152.27,101.07
302.89,139.29,152.3,101.09
303.23,139.38,151.85,100.8
302.52,138.86,153.55,101.93
302.26,138.75,154.4,102.49
303.04,139.42,153.67,102.01
303.4,139.54,153.55,101.92
303.34,139.34,153.02,101.58
303.86,139.76,152.98,101.55
303.32,138.96,153.56,101.93
303.09,138.84,153.84,102.12
303.24,139.23,153.78,102.08
303.29,139.51,153.59,101.95
303.24,139.54,153.37,101.81
302.47,138.83,153.69,102.02
302.98,139.64,153.02,101.57
303.35,140.39,151.53,100.58
303.4,140.59,150.83,100.12
303.68,140.77,149.5,99.237
303.58,140.44,149.02,98.921
303.86,140.66,148.28,98.429
304.14,141.03,147.68,98.031
304.15,141.15,147.39,97.836
304.47,141.36,146.92,97.524
304.45,141.41,146.77,97.423
304.27,141.09,146.53,97.265
304.61,141.22,146.15,97.016
304.83,141.4,145.38,96.502
305.49,141.92,144.64,96.012
305.24,142.01,144.55,95.948
305.27,142.46,144.48,95.903
304.75,142.07,144.91,96.191
304.65,142,145.29,96.444
304.68,142.04,145.43,96.538
304.53,141.67,145.89,96.841
304.94,141.81,145.74,96.742
305.18,141.38,146.17,97.028
304.99,141.14,146.63,97.33
305.5,141.1,146.35,97.148
305.37,141.08,147.29,97.771
305.06,140.68,147.75,98.076
304.76,140.67,148.72,98.721
304.75,140.8,149.85,99.47
305.09,140.94,149.85,99.469
305.58,141.17,149.61,99.309
305.22,140.63,149.74,99.397
306.22,141.37,149.22,99.051
306.59,141.37,148.92,98.852
306.25,141.05,149,98.905
305.19,140.45,150.55,99.935
305.98,141.14,149.06,98.947
306.31,141.4,148.64,98.664
305.76,141.48,149.06,98.945
306.24,141.98,147.86,98.151
306.35,141.91,146.94,97.54
306.31,142.19,146.81,97.453
307.05,142.65,145.34,96.473
307.47,142.82,144.1,95.651
308.48,143.17,142.17,94.37
308.01,143.22,141.85,94.162
308.56,143.05,141.51,93.935
308.66,142.71,140.86,93.501
309.05,142.75,140.73,93.416
308.97,142.74,140.84,93.486
308.52,142.85,141.12,93.677
307.84,142.51,141.94,94.218
307.1,142.62,143,94.922
306.68,142.22,144.12,95.669
306.76,142.09,144.87,96.166
306.06,141.64,146.68,97.366
305.59,141.81,147.56,97.951
306.5,142.5,147.31,97.782
306.64,142.19,146.87,97.49
307.49,142.97,146.1,96.982
307.31,142.75,146.53,97.263
307.6,142.88,146.57,97.293
307.82,143.07,146.44,97.203
308.25,143.48,146.13,96.999
308.14,143.67,145.59,96.641
308.44,143.94,144.83,96.134
309.08,144.39,143.32,95.132
308.89,144.66,142.81,94.796
308.99,144.76,142.55,94.624
309.65,145.17,141.59,93.984
310.12,145.45,139.61,92.672
310.43,145.86,138.89,92.192
310.05,145.68,138.26,91.774
310.12,145.74,137.4,91.206
310.67,146.28,137.06,90.981
310.36,145.73,136.9,90.873
311.69,146.46,135.84,90.168
311.23,145.86,135.59,90.002
312.26,146.42,134.77,89.461
311.65,145.81,135.08,89.663
312.47,146.36,134.64,89.374
312.51,146.39,134.53,89.3
312.95,146.91,133.61,88.692
312.49,146.52,133.9,88.882
312.88,146.96,133.4,88.548
313.15,147.22,133.21,88.427
312.88,146.69,132.93,88.235
312.88,146.97,132.31,87.825
313.22,146.98,130.93,86.914
314.39,146.76,130.79,86.818
314.58,146.76,130.87,86.871
314.83,146.44,130.86,86.862
314.96,146.15,130.92,86.905
314.92,145.94,130.82,86.841
315.01,146.18,131,86.954
314.64,145.25,132.13,87.704
314.45,144.84,133.04,88.309
314.13,144.66,134.91,89.55
313.8,144.57,135.65,90.042
313.99,145.07,136.48,90.591
313.05,144.23,137.81,91.477
312.52,144.17,139.71,92.738
311.25,143.31,141.88,94.178
310.44,142.76,143.95,95.555
309.38,142.13,145.9,96.844
308.74,141.88,147.73,98.059
307.64,141.26,149.36,99.142
306.94,140.95,150.53,99.92
306.22,140.6,151.51,100.57
305.94,140.56,152.55,101.26
305.52,140.36,153.29,101.75
304.26,139.93,154.35,102.45
303.42,139.81,156.39,103.81
303.21,139.65,157.18,104.33
302.83,139.45,157.23,104.37
302.57,138.98,157.58,104.6
302.25,139.1,158.78,105.4
302.13,138.55,159.24,105.7
301.52,138.25,160.55,106.57
301,138.12,161.1,106.93
300.66,137.62,161.2,107.01
300.66,137.66,161.36,107.11
300.33,137.31,161.36,107.11
300.13,137.26,161.57,107.25
300.04,137.21,162.13,107.62
300.51,137.88,163,108.2
300.33,137.85,163.7,108.66
299.78,137.03,163.18,108.32
300.23,137.71,164.1,108.93
299.87,137.32,165.31,109.73
299.71,137.09,166.22,110.33
299.36,136.88,166.34,110.42
300.03,137.28,166.05,110.22
299.83,136.75,164.71,109.34
300.04,136.76,164.39,109.12
300.38,137.56,165.63,109.94
300.41,137.01,165.34,109.75
300.72,137.33,166.42,110.47
301.16,137.57,166.06,110.23
301.73,137.4,163.53,108.55
302.65,137.79,162.2,107.67
303.41,138.41,161.4,107.13
303.52,138.52,160.7,106.67
304.21,139.41,160.08,106.26
304.59,139.93,158.85,105.44
305.16,140.76,157.71,104.69
305.46,140.89,156.9,104.15
305.95,140.87,155.93,103.5
306.96,142.11,154.16,102.33
306.79,141.99,153.92,102.17
307.29,141.61,153.07,101.61
308.13,142.19,152.65,101.33
308.32,142.3,152.14,100.99
308.29,142.36,151.91,100.84
308.01,142.4,151.45,100.53
308.12,142.83,150.76,100.07
308.17,142.45,150.51,99.907
307.23,141.76,152.58,101.28
306.76,141.52,154.43,102.51
306.06,141.04,154.76,102.73
305.58,140.98,156.29,103.74
304.49,140.19,157.22,104.36
304.23,140.42,157.78,104.74
303.7,139.84,158.75,105.38
303.07,139.72,159.36,105.78
302.21,139.53,160.21,106.34
301.82,139.37,160.14,106.3
301.65,139.37,160.39,106.47
301.84,139.46,160.38,106.46
302.05,139.7,160.19,106.33
301.43,139.13,160.72,106.68
300.93,138.95,161.5,107.2
299.83,138.22,161.97,107.51
300.18,138.76,162.99,108.19
300.23,139,163.18,108.31
299.92,138.57,163.65,108.63
298.47,137.69,164.39,109.12
299.25,138.63,164.68,109.31
298.1,137.34,165.13,109.61
298.4,137.66,165.75,110.03
297.59,136.76,166.57,110.57
298.44,137.45,167.09,110.91
296.58,136.16,168.54,111.88
297.44,137.33,169.23,112.33
296.49,135.92,169.28,112.36
296.64,136.06,169.07,112.23
296.68,136.42,168.62,111.93
297.92,137.35,168.17,111.63
297.05,136.21,168.36,111.75
297.12,136.1,168.52,111.86
298.12,137.02,168.52,111.86
298.22,137.29,167.82,111.4
297.49,136.7,167.77,111.37
297.96,137.44,167.82,111.4
296.78,136.73,168.59,111.91
297.32,137.56,168.85,112.08
296.36,137.36,169.97,112.83
296.11,137.12,170.4,113.11
295.53,135.42,170.04,112.87
297.64,136.5,168.44,111.81
298.18,136.84,167.62,111.26
298.58,136.96,166.87,110.77
296.97,135.71,168.02,111.53
296.82,135.39,168.74,112.01
298.2,136.58,167.92,111.46
297.01,135.3,168.52,111.86
298.14,136.46,167.73,111.34
298.75,136.79,166.42,110.47
298.8,136.66,165.94,110.15
297.41,135.42,166.25,110.35
298.16,136.17,166.02,110.2
297.16,135.45,166.29,110.38
298.32,136.72,165.61,109.93
297.28,135.7,166.23,110.35
297.59,136.16,166.04,110.22
296.61,135.21,166.06,110.23
296.59,135.13,165.94,110.15
296.58,135.17,165.88,110.11
296.26,134.94,166.28,110.37
297.4,135.88,166.08,110.24
296,134.49,166.81,110.73
295.38,134.12,167.4,111.12
297.05,135.4,166.33,110.41
296.86,135.3,166.79,110.71
296.51,134.3,167.39,111.11
297.79,135.8,166.66,110.63
297.42,135.46,167.5,111.19
297.3,135.26,168.03,111.54
295.83,134.02,169.29,112.37
295.43,133.85,170.09,112.91
295.77,133.96,169.57,112.56
297.61,135.72,167.83,111.4
296.66,134.81,168.37,111.76
296.08,134.25,169.13,112.27
296.01,134.3,169.31,112.39
296.13,134.37,169.2,112.31
296.28,134.41,169.09,112.24
296.51,134.58,168.92,112.13
298.01,135.6,168.22,111.66
296.63,134.29,169.16,112.28
296.77,134.55,168.86,112.09
298.54,136.06,167.38,111.11
298.97,136.32,166.25,110.35
298.79,136.27,165.52,109.87
299.25,136.53,165.14,109.62
298.53,135.99,165.79,110.05
298.42,135.49,164.78,109.38
298.94,135.37,164.49,109.19
300.18,135.92,163.14,108.29
301.11,136.45,162.57,107.91
301.17,135.91,161.18,106.99
301.45,136.45,160.9,106.8
301.56,136.6,161.19,107
301.55,136.44,160.69,106.67
301.66,136.8,160.7,106.67
301.83,136.72,160.77,106.72
301.7,136.62,161.04,106.9
302.5,137.06,160.06,106.25
302.59,136.65,159.96,106.18
303.12,136.86,160.09,106.27
302.88,136.83,160.08,106.26
302.58,136.49,160.92,106.82
302.06,136.53,162.74,108.02
301.55,136.39,163.14,108.29
302.76,137.27,161.6,107.27
301.56,136.15,162.45,107.83
300.92,135.7,163.94,108.82
302.48,137.19,162.3,107.74
302.16,136.59,162.7,108
301.21,135.72,164.05,108.89
302.59,137.19,162.65,107.97
301.2,135.72,164.21,109
302.7,137.13,163.11,108.27
302.86,137.28,163.03,108.22
302.57,137.2,162.96,108.17
301.98,136.74,163.11,108.27
302.21,137.02,162.95,108.17
301.35,136.17,163.79,108.72
299.7,135.16,165.58,109.91
300.49,136.16,164.17,108.98
301.23,136.63,163.64,108.62
299.82,135.52,164.28,109.05
300.95,136.75,163.18,108.32
300.71,136.71,163.27,108.38
300.74,136.63,163.06,108.24
300.62,136.82,162.97,108.18
300.13,136.55,162.75,108.04
299.73,136.72,162.78,108.05
299.47,136.81,162.84,108.09
299.6,137.06,162.15,107.64
300.1,137.53,161.74,107.36
300.08,137.55,161.06,106.91
300.44,137.7,160.85,106.77
300.35,137.54,160.65,106.64
300.43,137.49,160.46,106.51
300.66,137.81,160.71,106.68
300.64,137.63,160.8,106.74
300.54,137.44,161.22,107.02
300.35,137.35,160.96,106.84
300.9,137.71,161.11,106.94
300.39,137.05,161.38,107.12
299.82,136.38,162.12,107.61
301.3,137.75,161.29,107.06
300.33,136.75,162.27,107.71
299.89,136.41,162.99,108.19
301.54,137.57,161.59,107.26
300.34,136.57,162.24,107.69
301.23,137.1,161.4,107.14
301.48,136.97,160.63,106.62
301.89,137.03,160.96,106.84
302.71,137.48,160.37,106.46
303.33,137.46,160.11,106.28
303.12,137.01,159.76,106.05
303.35,137.23,159.45,105.84
303.93,137.24,159.29,105.73
304.47,137.44,158.85,105.45
304.37,137.29,158.82,105.42
304.28,137.21,159.28,105.73
304.4,137.45,159.56,105.91
304.06,137.09,159.65,105.98
303.95,137.26,160.28,106.39
303.56,137,161.38,107.13
303.13,136.76,161.05,106.9
303.95,137.75,160.64,106.63
303.4,137.32,161.09,106.93
303.73,137.58,160.74,106.7
303.73,137.63,160.44,106.5
303.95,137.96,160.12,106.29
303.98,138.01,159.72,106.02
304.38,138.09,158.8,105.41
305,138.41,157.84,104.77
304.44,137.98,157.98,104.87
305.26,138.57,156.92,104.17
305.15,138.14,157.59,104.61
305.36,138.16,158.14,104.97
306.35,138.67,156.7,104.01
305.58,137.73,157.44,104.51
306.35,138.02,156.59,103.94
306.85,138.39,156.15,103.65
306.58,138.1,156.05,103.58
307.11,138.25,156.17,103.66
306.93,138.01,156.22,103.7
306.98,137.94,156.51,103.89
308.08,138.73,155.49,103.22
308.52,138.98,154.58,102.61
308.38,138.62,154.35,102.46
308.73,138.86,154.79,102.75
308.97,139.18,154.47,102.54
308.64,138.73,154.36,102.46
308.9,139.07,154.8,102.76
308.75,139.03,155.32,103.1
309.45,139.48,154.14,102.32
309.28,139.31,154.65,102.66
308.83,138.79,154.99,102.88
308.61,138.57,155.25,103.05
308.63,138.6,155.49,103.22
308.98,138.84,155.33,103.11
308.92,138.9,155.66,103.32
307.89,137.95,156.91,104.15
307.78,137.99,157.39,104.48
308.07,138.16,156.93,104.17
308.24,138.22,156.53,103.9
308.6,138.42,156.62,103.96
308.49,138.26,156.6,103.95
308.6,138.15,156.54,103.91
308.52,138.27,156.92,104.16
308.11,137.99,156.89,104.14
308.13,137.91,157.07,104.26
308.61,138.37,156.96,104.19
308.14,138.11,158.03,104.9
307.99,137.93,157.87,104.79
308.16,138.27,156.86,104.12
308.98,138.83,155.42,103.17
309.47,139.27,154.6,102.62
308.71,138.49,155.06,102.93
308.43,138.31,155.17,103
308.49,138.31,154.95,102.86
308.49,138.62,154.83,102.77
308.54,138.72,155.03,102.91
308.59,138.56,153.82,102.1
309.17,139.05,153.42,101.84
309.34,138.79,152.41,101.17
309.27,138.7,152.29,101.09
309.34,138.73,152.05,100.93
310.07,139.42,151.34,100.46
310.21,139.35,150.8,100.1
310.15,139.25,150.87,100.15
310.03,139.2,151.21,100.37
309.38,138.53,151.83,100.78
309.02,138.31,152.47,101.21
309.43,138.72,152.7,101.36
308.69,138.45,153.91,102.17
308.22,138.02,154.05,102.26
308.14,138.07,154.18,102.34
308.18,138.33,155.18,103.01
307.56,137.78,155.74,103.38
306.75,137.45,157.65,104.65
305.4,137.63,159.78,106.06
305.52,137.35,160.75,106.7
305.52,137.33,160.12,106.28
305.35,137.28,160.15,106.31
305.33,137.34,159.76,106.05
305.54,137.53,158.97,105.52
305.57,137.59,158.31,105.09
305.89,137.9,157.99,104.87
305.17,137.46,158.33,105.1
305.29,137.79,158.07,104.93
304.94,137.81,157.59,104.61
305.33,138.38,157.01,104.22
305.33,138.31,156.45,103.85
304.73,138.22,157.03,104.23
304.74,138.43,156.67,104
304.25,137.93,156.58,103.94
304.71,138.39,156.28,103.74
304.28,137.9,156.47,103.86
304.81,138.23,156.61,103.95
305.17,138.61,155.61,103.29
305.18,138.51,154.76,102.73
305.98,139.22,153.79,102.09
306.16,139.33,153.17,101.67
306.49,139.41,152.64,101.32
306.62,139.57,152.37,101.14
306.21,139.05,152.52,101.24
307.07,139.65,152.77,101.41
306.68,139.18,152.9,101.5
306.54,139.02,153.35,101.79
306.65,139.26,152.93,101.52
306.6,139.2,153.01,101.57
307.13,139.61,152.9,101.49
306.83,139.25,153.17,101.67
307.98,139.98,152.19,101.03
308.24,139.88,151.35,100.47
309.44,140.29,150.55,99.934
309.26,140.02,150.9,100.17
309.74,140.32,150.71,100.04
309.76,140.18,149.9,99.503
309.89,140.28,149.25,99.073
310.45,140.64,148.73,98.723
310.63,140.67,148.45,98.538
310.41,140.23,148.04,98.271
311.04,140.79,147.46,97.886
311.23,141.05,147.04,97.603
311.65,141.26,146.79,97.44
311.11,140.79,146.85,97.478
311.57,141.16,146.49,97.24
311.67,141.43,146.36,97.153
311.42,141.36,146.37,97.16
310.93,141.14,147.12,97.655
310.57,140.93,147.52,97.924
310.51,141.03,147.95,98.211
310.57,141.21,147.63,97.997
310.46,141.4,147.66,98.017
310.19,141.2,147.26,97.75
310.21,141.36,146.95,97.545
310.49,141.43,147.1,97.645
310.25,141.38,146.98,97.567
310.32,141.54,147.29,97.767
309.85,141.28,147.4,97.841
310.13,141.53,147.49,97.906
309.82,141.52,147.77,98.089
309.22,141.28,148.53,98.596
309.35,141.44,148.58,98.624
309.16,141.46,148.72,98.719
309.21,141.67,148.83,98.791
308.47,141,149.48,99.227
308.51,141.01,148.81,98.779
308.84,141.32,148.12,98.323
309.11,141.53,148.12,98.319
309.27,141.68,147.6,97.973
309.46,141.94,147.03,97.598
309.72,142.16,146.46,97.219
309.72,142.06,145.99,96.905
310.21,142.23,144.65,96.018
311.1,142.65,143.12,95.001
311.37,143.16,142.8,94.792
310.97,143.08,143.05,94.956
311.72,143.47,142.02,94.269
311.79,143.66,140.59,93.325
312.79,144.37,139.61,92.671
313.22,144.7,138.32,91.816
314.37,145.36,135.18,89.734
314.96,145.28,132.8,88.151
315.65,145.6,130.63,86.714
316.66,147.49,128.74,85.458
316.82,147.77,127.47,84.614
317.28,148.1,126.69,84.098
318.04,148.76,125.56,83.348
318.41,148.83,124.71,82.781
319.03,149.38,122.98,81.631
318.93,149.48,122.56,81.353
319.74,150.2,121.9,80.914
319.49,149.82,121.53,80.671
319.63,150.05,121.56,80.694
319.54,149.89,121.85,80.885
319.01,149.23,122.17,81.094
319.34,149.25,122.58,81.369
319.33,149.86,123,81.648
318.91,149.8,123.69,82.103
319.04,150.1,124.3,82.51
318.94,149.88,124.59,82.705
318.2,149.41,124.87,82.886
318.77,149.69,124.79,82.836
318.35,149.6,124.63,82.725
318.49,149.12,124.93,82.93
318.34,149.41,124.73,82.798
318.3,149.16,124.73,82.793
318.31,149.28,124.48,82.632
318.79,149.3,123.45,81.947
318.5,148.87,123.08,81.697
319.32,150.33,122.9,81.578
319.03,150.52,122.71,81.457
319.39,150.85,122.77,81.497
319.69,150.9,122.53,81.336
319.98,151,121.92,80.931
319.93,151.07,122.05,81.013
320.29,151.46,121.96,80.955
320.04,151.44,121.62,80.728
320.62,152,120.72,80.134
320.83,151.9,119.63,79.41
321.24,152.37,118,78.327
321.11,152.83,117.22,77.808
321.39,153.2,116.82,77.545
321.75,154.03,114.97,76.319
321.44,154.9,113.64,75.434
321.64,155.56,112.65,74.779
322.08,155.49,112.21,74.484
321.37,155.61,112.55,74.709
322.15,156.59,112.12,74.423
321.77,155.27,112.55,74.709
321.96,154.38,113.05,75.044
321.34,154.46,113.99,75.667
320.74,154.09,115.37,76.579
320.53,154.73,116.36,77.239
319.23,153.42,118.06,78.366
317.6,153.52,118.92,78.941
316.28,152.67,120.44,79.947
316.05,152.81,121.91,80.925
315.97,152.25,123.39,81.902
315.8,151.35,125.69,83.431
315.72,151.06,127.51,84.641
312.78,151.01,128.99,85.622
312.57,149.3,133.08,88.337
311.19,149.38,136.66,90.715
309.96,149.45,139.53,92.618
308.91,148.29,143.31,95.126
306.08,150.03,145.4,96.518
304.17,149.59,147.08,97.63
303.38,150.05,149.46,99.209
303.09,149.88,151.78,100.75
302.99,149.66,153.01,101.57
302.85,149.1,155.57,103.26
302.93,148.72,156.7,104.02
302.06,148,157.59,104.61
302.81,147.87,158.36,105.12
302.57,147.09,158.94,105.51
302.28,146.69,159.36,105.78
302.8,146.15,160,106.21
303.66,146.81,159.83,106.1
304.06,147.31,159.41,105.81
304.73,146.5,159.67,105.99
304.77,147,159.26,105.71
305.12,147.31,159.16,105.65
305.52,146.51,159.29,105.73
306.45,147.22,159.17,105.66
306.8,146.48,159.35,105.78
307.35,146.44,159.31,105.75
307.71,146.62,158.95,105.51
308.1,146.14,158.57,105.26
308.36,146.12,158.87,105.45
308.98,146.28,158.77,105.39
309.47,146.34,158.91,105.48
309.85,146.1,158.88,105.46
310.48,146.28,158.39,105.14
310.78,146.2,157.79,104.74
311.47,146.95,156.93,104.17
312.03,147.14,156.09,103.61
312.54,147.46,155.87,103.47
313.55,147.6,155.71,103.36
313.56,147.26,155.29,103.08
314.32,147.95,155.21,103.03
315.65,147,153.62,101.97
316.6,147.46,152.75,101.4
316.3,147.49,152.55,101.26
316.14,147.82,153.12,101.64
316.5,148.24,153.55,101.92
315.71,147.77,153.69,102.02
316.08,148.2,153.77,102.07
316.33,148.35,153.44,101.85
316.09,148.06,152.8,101.43
316.53,148.2,152.57,101.28
317.1,148.9,152.38,101.15
316.67,148.56,152.34,101.12
316.81,149.25,151.27,100.41
316.98,149.12,151.29,100.43
317.18,149.31,151.08,100.29
316.61,149.17,152.04,100.92
316.87,149.2,152.34,101.12
316.63,148.38,151.85,100.79
317.21,148.54,150.3,99.77
316.54,148.65,150.88,100.15
315.96,149.03,151.44,100.53
315.78,149.08,151.77,100.75
314.81,148.62,151.87,100.81
314.62,149.04,151.15,100.34
313.5,149.04,152.24,101.06
313.07,148.97,153,101.56
312.79,149.25,153.2,101.69
312.82,149.51,153.55,101.92
312.44,149.46,152.82,101.44
312.1,149.34,152.82,101.44
312.03,149.54,152.53,101.25
311.47,149.49,154.07,102.27
311.32,149.34,153.44,101.85
310.21,148.25,154.75,102.72
309.93,147.97,156.22,103.7
309.37,147.19,156.86,104.12
309.21,146.82,157.59,104.6
309.36,146.24,159.06,105.58
308.16,145.17,161.07,106.92
307.85,144.82,162.87,108.11
306.97,143.63,165.53,109.88
306.06,143.31,168.12,111.59
303.96,142.01,170.44,113.14
302.56,141.64,172.51,114.51
301.47,140.87,175.14,116.25
300.31,140.14,178.55,118.52
299.24,139.59,182.44,121.1
297.52,137.99,186.53,123.82
296.75,137.38,189.37,125.7
294.54,136.11,192.26,127.62
293.99,135.28,195.42,129.72
292.65,134.25,197.35,131
291.86,134.21,199.36,132.34
