534.5,136.5,75,223
537.67,140.5,74.665,222
537.24,140.23,74.512,221.55
537.79,140.36,74.422,221.28
536.46,139.87,74.078,220.26
534.78,138.81,74.073,220.24
534.52,138.46,73.775,219.36
533.71,139.28,73.06,217.23
533.64,139.15,73.059,217.23
533.81,138.9,73.387,218.2
532.34,137.93,74.188,220.59
532.65,140.18,74.114,220.37
531.54,140.67,73.936,219.84
529.83,139.93,74.55,221.66
528.81,140.41,74.388,221.18
528.2,137.98,74.742,222.23
526.53,138.43,74.504,221.53
525.17,137.74,74.766,222.31
523.79,137.73,74.59,221.78
522.69,137.57,74.616,221.86
521.35,136.65,74.755,222.27
521.68,137.46,74.87,222.61
520.43,137.49,74.183,220.57
518.98,139.38,73.785,219.39
519.15,139.42,73.707,219.16
518.04,137.87,74.276,220.85
517.63,137.29,74.521,221.58
516.83,137.6,74.41,221.25
516.58,137.74,74.364,221.11
517.27,138.31,74.457,221.39
516.8,138.42,74.385,221.17
516.65,137.45,74.45,221.36
516.5,137.39,74.581,221.75
515.28,137.06,74.625,221.88
515.56,136.68,74.881,222.65
515.2,135.97,75.08,223.24
515.02,136.19,75.086,223.26
515.36,136.29,75.035,223.11
515.53,136.31,74.93,222.79
515.57,136.7,74.867,222.61
515.45,136.22,74.851,222.56
515.2,136.06,74.89,222.67
515.34,135.77,74.994,222.98
515.42,135.97,75.145,223.43
515.86,136.6,75.27,223.8
515.41,136.1,75.296,223.88
515.07,136.23,75.365,224.09
514.71,136.7,75.123,223.37
514.56,137.01,74.936,222.81
514.7,137.59,74.602,221.82
515.11,136.21,75.066,223.19
515.24,135.58,75.381,224.13
514.78,134.82,75.61,224.81
515.22,135.25,75.676,225.01
515.6,135.82,75.792,225.35
514.5,135.36,75.703,225.09
514.62,135.07,75.583,224.73
514.67,135.75,75.606,224.8
514.97,135.67,75.781,225.32
515.09,134.79,75.811,225.41
513.9,134.51,75.756,225.25
513.03,135.49,75.465,224.38
514.06,135.16,75.661,224.96
514.2,134.9,75.782,225.32
514.56,135.19,75.881,225.62
513.61,135.12,75.691,225.06
513.69,134.6,75.788,225.34
513.83,134.57,75.907,225.7
513.56,134.13,75.967,225.88
514.5,134.52,75.992,225.95
513.84,134.12,75.997,225.96
514.12,134.02,76.052,226.13
514.37,133.48,76.364,227.06
513.62,133.66,76.236,226.67
513.17,134.52,75.661,224.96
513.33,134.74,75.531,224.58
513.93,134.28,75.909,225.7
513.27,134.09,75.734,225.18
514.89,133.29,76.238,226.68
513.1,134.3,75.806,225.4
513.08,135.33,75.737,225.19
513.65,135.23,75.614,224.83
513.87,135.16,75.793,225.36
513.73,134.78,76.018,226.03
514.52,135.08,75.958,225.85
513.46,134.4,76.179,226.51
513.3,134.54,75.66,224.96
513.63,134.64,75.933,225.78
513.61,134.47,75.985,225.93
514.5,134.51,75.999,225.97
513.66,134.48,75.979,225.91
513.54,134.37,75.962,225.86
513.58,134.83,75.701,225.08
513.59,135.01,75.554,224.65
514.17,135.52,75.659,224.96
513.52,135,75.744,225.21
513.55,134.95,75.603,224.79
513.63,135.29,75.622,224.85
513.51,135.13,75.673,225
513.67,135.53,75.652,224.94
513.39,135.02,75.702,225.09
513.44,134.94,75.64,224.9
513.14,134.97,75.593,224.76
513.21,134.86,75.837,225.49
513.52,135.58,75.954,225.84
513.13,134.79,75.951,225.83
513.13,134.76,75.82,225.44
513.25,134.55,76.058,226.15
513.37,134.64,75.98,225.91
513.57,135.22,75.862,225.56
513.1,134.55,76.002,225.98
513.02,134.57,75.908,225.7
512.55,134.36,76.021,226.03
512.61,134.35,76.06,226.15
513.42,134.77,76.163,226.46
512.28,134.46,75.773,225.3
512.43,133.99,76.404,227.17
512.32,134.21,76.198,226.56
511.91,133.65,76.176,226.5
512.38,134.16,76.241,226.69
511.29,133.61,76.05,226.12
511.44,133.9,76.279,226.8
510.52,133.12,76.349,227.01
510.54,133.09,76.377,227.09
511.26,134.3,76.478,227.4
510.24,133.31,76.838,228.47
509.64,132.71,76.651,227.91
509.75,133.17,76.557,227.63
509.91,132.9,77.241,229.66
509.43,132.83,77.132,229.34
508.93,132.62,77.393,230.12
508.14,133.93,75.832,225.47
508.28,134.74,75.836,225.49
507.53,134.26,76.259,226.74
507.47,135.41,75.062,223.19
506.39,135.94,75.159,223.47
505.84,136.62,74.458,221.39
505.41,136.48,74.811,222.44
504.41,136.3,74.888,222.67
504.2,137.1,74.595,221.8
503.02,137.34,74.189,220.59
502.43,137.14,74.502,221.52
501.46,136.84,74.641,221.93
500.64,136.39,74.769,222.31
500.41,136.22,75.188,223.56
498.98,136.26,74.929,222.79
498.15,135.76,75.22,223.65
497,135.48,75.369,224.1
495.51,136.06,74.945,222.84
494.74,137.73,74.51,221.54
491.35,136.85,74.714,222.15
489.81,136.76,74.702,222.11
488,136.87,74.657,221.98
486.21,136.36,74.8,222.41
485.68,137.52,74.649,221.96
482.92,137.09,74.626,221.89
481.33,136.93,74.686,222.07
480.66,136.32,74.968,222.91
480.04,136.02,75.237,223.7
479.74,135.74,75.511,224.52
477.72,135.72,75.498,224.48
476.28,135.2,75.753,225.24
475.05,135.16,75.851,225.53
473.92,134.71,76.543,227.59
473.48,135.47,77.036,229.06
469.65,133.59,77.896,231.61
466.77,133.77,77.512,230.47
464.88,133.71,77.714,231.07
462.1,133.74,77.742,231.15
460.3,133.45,78.396,233.1
455.07,131.99,78.663,233.89
453.5,131.84,79.112,235.23
450.73,130.73,79.376,236.01
447.31,130.19,79.194,235.47
446.37,130.66,79.266,235.68
442.86,130.77,79.174,235.41
441.12,130.56,79.544,236.51
438.82,130.29,79.408,236.11
437.37,131.58,78.969,234.8
436.27,132.86,78.458,233.28
434.33,132.24,78.215,232.56
434.43,131.64,79.442,236.21
433.06,129.81,79.628,236.76
432.21,129.68,80.68,239.89
431.73,130.77,80.533,239.45
428.62,130.87,79.463,236.27
427.74,131.7,78.808,234.32
426.81,132.1,79.382,236.03
425.41,131.78,79.096,235.18
425.8,131.46,80.406,239.07
421.76,129.85,80.581,239.59
421.84,129.37,80.758,240.12
422.93,128.61,81.469,242.23
421.4,127.59,81.53,242.42
422.63,127.47,81.747,243.06
421.19,127.78,82.344,244.84
420.93,127.45,82.454,245.16
419.73,127.04,82.406,245.02
419.26,127.39,82.381,244.95
419.27,127.42,82.456,245.17
417.74,127.75,82.532,245.4
416.54,127.41,82.408,245.03
416.88,128.23,82.579,245.53
415.51,127.61,82.756,246.06
415.37,128.23,83.251,247.53
413.7,127.67,83.433,248.08
414.08,127.16,83.696,248.86
412.62,126,83.757,249.04
412.43,125.22,84.183,250.3
411.82,124.6,84.353,250.81
412.24,123.84,84.982,252.68
412.01,123.41,85.577,254.45
411.91,123.03,85.898,255.4
411.83,122.67,85.949,255.56
412.44,123.47,86.121,256.07
412.21,122.76,86.172,256.22
412.25,121.96,86.522,257.26
413.15,122.23,86.912,258.42
412.75,122.41,86.743,257.92
414.52,122.7,86.97,258.59
414.11,122.26,86.905,258.4
415.49,122.18,86.823,258.16
416.43,122.38,86.772,258
416.6,122.13,86.882,258.33
418.22,122.32,87.567,260.36
419.81,120.74,87.76,260.94
420,119.57,88.206,262.27
420.43,119.12,88.459,263.02
420.98,118.85,88.249,262.39
422.41,119.4,88.182,262.2
423.24,118.1,88.414,262.89
424.53,117.94,88.282,262.49
425.01,118.18,88.598,263.43
426.7,117.6,88.964,264.52
428.62,118.54,88.761,263.91
430.31,118.77,88.882,264.27
432.56,119.21,88.77,263.94
434.45,118.34,88.625,263.51
436.24,118.8,88.506,263.16
439.11,118.53,88.772,263.95
440.5,117.13,89.121,264.98
441.94,116.86,89.431,265.91
443.27,116.41,89.939,267.42
445.39,114.92,90.589,269.35
447.48,114.16,91.035,270.68
451.82,112.74,91.242,271.29
454.12,111.36,91.827,273.03
457.08,110.8,92.441,274.86
458.7,110.05,93.27,277.32
460.53,109.33,93.947,279.33
465.14,110.66,95.416,283.7
466.91,110.26,95.662,284.44
470.67,109.92,96.695,287.51
472.77,110.16,97.225,289.08
476.69,110.37,97.621,290.26
478.42,108.31,97.836,290.9
485.08,107.8,98.276,292.21
488.19,107.52,98.777,293.7
491.56,108.36,98.401,292.58
494.54,107.44,98.921,294.13
496.9,108.32,98.307,292.3
499.85,106.79,98.855,293.93
502.08,107.11,98.564,293.06
503.24,105.18,98.629,293.26
505.33,106.31,98.337,292.39
507.52,106.17,98.839,293.88
511.6,106.98,98.838,293.88
513.08,107.18,98.903,294.07
514.89,107.16,99.18,294.89
516.71,106.45,99.586,296.1
518.55,106.29,99.599,296.14
522.3,106.66,99.895,297.02
524.83,107.23,100.54,298.95
526.06,106.84,100.97,300.23
527.82,107.31,101.36,301.38
529.42,106.95,101.82,302.73
532.41,107.8,101.96,303.17
535.18,107.96,102.24,303.99
534.27,107.91,102.21,303.9
535.33,109.35,102.34,304.3
536.22,108.77,102.26,304.04
538.92,107.14,102.64,305.19
540.23,105.42,102.68,305.31
541.95,105.64,102.25,304.01
542.77,105.67,102.46,304.66
544.33,105.05,102.62,305.12
548,104.57,102.36,304.35
547.99,104.79,102.07,303.48
550.45,104.22,102.66,305.24
552.69,104.44,102.62,305.12
555.22,103.33,102.81,305.68
557.08,102.64,102.52,304.81
559.62,103,102.25,304.01
561.45,101.2,101.63,302.19
564.45,102.69,101.1,300.62
564.19,103.93,100.93,300.11
564.37,104.48,100.63,299.2
565.48,103.89,100.12,297.68
564.58,103.33,99.69,296.41
563.66,103.29,98.682,293.42
563.33,102.85,98.157,291.85
562.1,102.93,97.514,289.94
563.6,103.75,97.383,289.55
563.8,105.34,96.946,288.25
565.11,105.63,96.773,287.74
565.39,105.82,96.977,288.35
564.47,106.93,96.422,286.69
564.51,107.79,96.144,285.87
565.72,108.76,96.006,285.46
564.69,107.33,95.63,284.34
565.92,107.62,95.651,284.4
562.64,108.16,95.949,285.29
562.52,107.05,95.778,284.78
