215.5,182.5,135,81
206.45,183.73,135.51,81.309
194.74,182.35,138.21,82.928
182.28,181.29,139.26,83.553
178.23,180.44,140.76,84.458
176.44,179.97,143.3,85.982
181.82,183.28,140.6,84.36
194.42,186.1,139.42,83.651
209.03,186.95,136.26,81.758
221.7,189.59,135.33,81.196
249.11,194.35,135.79,81.476
295.61,198.22,137.31,82.384
319.99,198.69,137.22,82.33
340.87,197.32,137.6,82.561
356.81,196.7,139.32,83.591
371.74,190.87,144.23,86.536
400.47,186.01,142.35,85.41
413.72,183.8,145.66,87.395
471.33,203.47,147.99,88.792
448.36,166.08,150.9,90.538
452.22,169.1,153,91.8
404.77,179.91,150.86,90.514
392.46,185.66,150.78,90.468
377.92,189.46,148.08,88.85
368.46,190.65,145.62,87.371
354.86,187.42,147.44,88.462
331.34,183.9,150.01,90.006
308.23,179.5,149.89,89.935
292.54,175.72,153.49,92.093
281.55,174.86,155.95,93.568
272.26,173.31,157.58,94.55
261.22,175.2,160.76,96.457
257.88,175.58,159.5,95.7
260.31,179.88,158.52,95.11
259.43,179.99,160.05,96.032
260.39,180.21,159.47,95.682
279.31,189.57,154.28,92.567
284.99,189.66,149.79,89.873
285.37,188.28,148.37,89.024
284.74,184.82,148.38,89.03
281.75,181.97,150.02,90.014
272.46,178.08,151.44,90.862
253.02,176.49,149.9,89.939
239.73,177.35,148.39,89.032
225.13,178.24,146.73,88.039
214.33,180.49,144.75,86.852
191.65,183.01,145.72,87.431
181.53,182.95,146.3,87.778
173.48,185.38,145.6,87.362
170.41,187.04,144.58,86.749
168.6,186.24,144.24,86.545
172.51,181.94,145.26,87.157
179.46,176.59,146.12,87.673
186.67,170.38,145.89,87.531
196.63,163.06,146.14,87.685
207.08,155.85,145.65,87.39
225.51,144.92,144.41,86.644
237.25,145.1,144.34,86.605
247.38,145.82,145.23,87.137
256.73,148.47,146.3,87.78
264.96,151.36,146.58,87.949
272.35,161.92,148.01,88.807
274.75,165.61,149.81,89.884
275.2,169.47,148.92,89.352
272.96,174.09,147.81,88.684
268.88,177.21,148.08,88.849
259.41,181.54,147.4,88.439
256.29,182.14,147.71,88.629
252.54,182.52,147.12,88.271
251.15,183.77,145.91,87.547
251.24,185.99,144.02,86.409
254.45,192.96,142.55,85.529
257.8,196.09,140.54,84.326
263.43,199.26,138.39,83.033
265.8,201.44,137.56,82.537
268.01,201.58,135.81,81.486
271.05,201.6,134.72,80.835
272.23,201.31,133.22,79.934
272.1,201,131.98,79.186
269.07,199.05,132.4,79.44
266.97,196.79,134.01,80.407
262.98,190.2,135.47,81.28
260.98,185.93,136.75,82.047
260.81,180.98,138.63,83.178
264.49,173.98,140.56,84.336
265.03,168.04,141.82,85.094
265.87,159.86,141.88,85.128
265.32,155.34,142.46,85.479
269.22,153.25,142.68,85.608
270.05,150.9,142.37,85.422
269.7,147.96,142.57,85.545
267.82,146.09,142.04,85.224
262.39,143.13,142.8,85.679
259.94,143.13,143.57,86.144
258.09,144.69,143.63,86.18
254.58,148.7,143.97,86.382
250.62,152.89,143.49,86.093
235.12,159.27,143.5,86.103
219.51,163.28,143.89,86.333
205.21,167.96,143.67,86.201
190.86,171.06,143.72,86.232
179.75,173.91,143.81,86.286
151.61,177.77,143.87,86.322
139.74,178.05,143.27,85.962
131.63,178.38,144,86.401
123.86,178.39,143.45,86.068
119.04,177.76,143.18,85.909
117.81,177.48,142.89,85.734
121,176.79,142.05,85.229
133.91,177.74,142.12,85.272
145.09,178.58,142.24,85.344
156.23,179.69,142.55,85.53
176.84,180.77,141.99,85.191
188.95,180.97,141.85,85.109
198.16,180.69,141.08,84.65
208.5,179.62,140.78,84.468
219.16,176.97,140.39,84.235
236.08,172.05,141.28,84.766
244.66,169.34,142.71,85.624
254.5,167.64,145.02,87.011
265.35,166.45,145.89,87.534
278.06,164.8,146.47,87.882
307.95,160.35,147.84,88.703
318.64,156.85,147.53,88.519
331.2,155.55,146.59,87.957
341.68,150.6,145.03,87.015
351.74,145.21,144.38,86.631
359.71,140.91,143.48,86.089
357.35,140.59,142.35,85.412
352.99,139.91,141.62,84.974
342.13,139.9,140.76,84.455
331.84,140.78,140.6,84.362
303.73,151.05,141.91,85.144
286.49,158.76,141.36,84.815
272.36,165.8,141.36,84.816
256.97,171.24,141.5,84.897
243.21,176.2,141.63,84.979
222.64,181.42,141.55,84.933
213.2,183.66,142.15,85.293
203.93,184.92,142.19,85.315
194.43,186.51,141.61,84.963
187.76,186.74,140.88,84.526
175.02,187.15,140.72,84.43
170,184.01,140.88,84.528
165,182.52,142.35,85.411
159.88,179.36,143.29,85.971
157.28,176.07,144.6,86.758
157.33,165.59,145.08,87.05
164.35,157.46,144.51,86.707
172.14,149.97,143.44,86.064
184.68,143.83,143.98,86.385
197.41,139.21,144.37,86.62
213.92,133.09,145.07,87.041
227.39,128.84,144.59,86.752
237.02,126.1,144.36,86.614
242.06,124.59,144.75,86.853
245.13,123.98,144.51,86.705
244.65,124.98,143.59,86.154
239.42,127.05,142.61,85.567
232.14,133.41,142.09,85.252
225.31,136.04,144.28,86.565
217.14,139.8,145.49,87.293
199.07,155.56,144.88,86.93
192.24,162.58,144.51,86.708
188.8,168.37,146.15,87.692
187.59,172.02,148.29,88.971
186.76,174.88,149.72,89.834
193.34,176.84,150.68,90.407
198.27,177.69,150.15,90.087
205.91,178.09,149.05,89.43
215.49,178.13,148.46,89.079
225.14,178.95,147.45,88.47
240.69,179.22,146.57,87.945
249.75,178.47,145.86,87.517
259.06,177.79,145.46,87.278
268.43,176.51,144.86,86.917
278.19,174.24,143.36,86.014
299.87,169.04,142,85.201
312.94,164.28,142.1,85.261
322.83,159.68,142.91,85.745
328.92,155.15,143.06,85.838
334.87,150.61,143.01,85.806
336.74,143.59,141.82,85.09
336.26,142.35,141.61,84.964
337.25,141.44,140.18,84.109
322.2,128.88,139.73,83.841
337.5,140.06,138.68,83.206
335.77,138.47,137.65,82.592
328.38,143.07,137.04,82.227
303.3,144.37,137.25,82.353
297.42,148.34,138.18,82.91
291.28,146.96,137.26,82.354
267.64,152.18,136.81,82.084
263.87,157.74,137.39,82.437
259.34,160.61,137.74,82.645
254.54,162.97,138.43,83.056
252.86,166.52,138.71,83.226
258.84,168.34,138.19,82.914
262.52,165.96,139.08,83.451
263.56,165.41,139.53,83.719
264.93,164.16,139.57,83.74
270.28,163.91,139.59,83.756
270.34,163.1,138.53,83.121
267.35,164.03,138.12,82.875
262.51,166.84,139.9,83.94
252.71,165.42,140.88,84.526
241.9,167.25,141.54,84.926
218.09,165.59,143.72,86.235
204.35,162.02,145.06,87.034
193.49,159.74,146.15,87.688
182.78,157.85,146.64,87.984
176.01,155.42,147.74,88.647
165.5,153.02,148.66,89.198
165.9,152.08,149.84,89.904
163.88,149.99,151.99,91.192
165.21,151.34,153.41,92.047
171.78,151.58,155.21,93.128
191.08,154.48,156.02,93.612
205.33,155.49,156.3,93.778
219.65,153.94,155.67,93.401
236.49,153.84,155.65,93.389
254.51,154.32,153.25,91.951
283.96,156.99,150.72,90.432
306.05,158.82,149.99,89.994
325.79,159.74,149.5,89.702
342.48,160.62,149.39,89.635
355.71,161.18,150.34,90.206
381.44,158.72,149.99,89.994
391.34,157.69,149.71,89.826
395.32,158.38,149.52,89.714
396.4,157.96,148.42,89.055
399.13,157.02,148.44,89.065
392.03,157.15,146.79,88.071
376.07,156.28,145.63,87.377
361.48,155.34,145.67,87.402
347.89,153.81,145.19,87.114
331.2,150.02,144.53,86.72
313.43,147.34,143.56,86.134
287.13,146.46,143.6,86.158
271.64,147.33,144.68,86.809
256.62,147.13,145.84,87.502
242.67,149.15,147.59,88.554
221.9,155.4,149.77,89.863
213.08,157.75,151.14,90.686
206.86,159.54,152.11,91.266
199.54,162.45,153.27,91.961
196.44,163.61,153.85,92.31
192.98,167.14,153.16,91.894
194.44,169.01,151.49,90.895
197.43,170.89,149.72,89.83
200.55,172.13,148.37,89.022
207.67,172.58,146.29,87.773
224.2,173.93,146.31,87.785
233.44,173.27,146.21,87.724
241.65,172.7,145.47,87.284
246.92,171.91,146.02,87.614
251.46,172.24,146.26,87.757
255.06,172.23,145.99,87.595
255.38,171.31,145.72,87.432
254.64,170.35,145.88,87.53
248.24,166.9,145.09,87.054
244.64,164.66,145.89,87.535
236.45,161.21,146.99,88.193
215.78,155.61,146.85,88.11
205.64,154.27,146.35,87.81
195.97,154.02,145.92,87.549
188.33,154,146.26,87.758
180.64,155.18,146.49,87.892
171.53,157.8,146.82,88.093
173.41,159.91,148.13,88.88
171.97,161.2,149.62,89.769
176.38,162.14,151.34,90.805
185.46,164.13,151.09,90.653
200.63,165.2,151.1,90.658
214.5,165.97,152.14,91.285
231.13,166.27,152.11,91.263
246.09,165.61,152.37,91.422
262,165.06,150.93,90.558
290.06,163.17,149.65,89.791
308.14,162.73,147.83,88.696
323.09,162.08,146.99,88.192
334.84,161.81,146.66,87.998
344.05,162.35,147.2,88.318
353.4,162.38,146.9,88.142
354.93,161.73,147.34,88.403
354.73,160.89,149.1,89.463
353.18,159.31,150.26,90.158
347.69,157.54,149.6,89.76
338.47,157.45,149.61,89.766
334.05,157.64,150.18,90.108
330.84,156.44,148.72,89.235
328.7,158.18,147.55,88.528
326.37,159.33,146.82,88.093
324.32,161.93,145.87,87.525
321.18,162.42,145.12,87.074
317.69,163.17,144.44,86.665
314.82,163.61,145.03,87.019
311.09,164.81,146.52,87.912
301.43,163.21,145.92,87.55
297.64,163.94,146.44,87.864
293.2,165.72,146.64,87.982
289.24,166.01,146.75,88.052
286.5,166.42,146.03,87.616
279.9,167.47,145.93,87.56
276.2,168.39,145.37,87.224
271.33,169.76,145.69,87.417
267.7,171.54,145.51,87.305
262.88,171.88,146.55,87.931
257.82,171.87,146.85,88.111
256.73,172.43,147.78,88.667
255.48,171.06,147.04,88.223
255.57,170.81,146.82,88.094
257.34,169.89,147.35,88.411
263.54,168.4,147.81,88.683
270.89,166.48,146.19,87.711
275.21,166.02,144.02,86.415
277.73,163.5,143.53,86.119
281.34,163.53,142.07,85.24
286.76,164.55,141.67,85.005
282.93,163.15,141.21,84.727
277.15,162.68,140.16,84.099
272.73,163.59,139.73,83.839
268.5,164.18,140.36,84.216
260.99,166.29,140.52,84.311
257.28,167.52,140.11,84.065
253.33,167.62,139.66,83.798
249.14,167.84,139,83.401
248.65,167.53,137.62,82.571
253.64,167.1,137.32,82.389
259.1,166.25,138.63,83.179
266.4,165.09,141.18,84.708
277.06,165.19,141.88,85.125
288.39,164.68,141.85,85.11
308.09,164.12,142.41,85.444
320.25,163.88,142.62,85.574
331.51,164.59,143.18,85.906
342.36,164.76,143.84,86.304
351.34,165.6,144.54,86.727
362.7,167.11,145.84,87.502
368.27,167.33,146.72,88.03
370.98,168.66,147.99,88.794
373.98,168.94,150.45,90.268
373.08,169.06,150.88,90.526
364.61,168.2,149.9,89.939
356.89,166.01,150.22,90.135
342.24,165.37,149.35,89.61
322.63,165.12,150.16,90.098
308.85,165.44,149.7,89.818
288.46,164.95,150.25,90.148
280.14,163.72,151.13,90.679
272.71,162.5,152.2,91.323
268.29,162.48,154.18,92.505
264.47,163.7,156.47,93.884
271.16,160.17,155.81,93.484
267.94,151.43,154.84,92.904
261.8,145.1,155.31,93.186
255.54,138.9,156.24,93.743
249.14,133.69,157.53,94.519
270.36,102.13,158.44,95.061
264.23,95.696,159.72,95.83
258.82,88.798,160.76,96.456
253.81,84.057,161.66,96.993
250.2,73.591,163.15,97.893
242.12,49.74,162.82,97.694
239.06,39.375,162.33,97.399
236.23,27.383,162.58,97.546
251.43,47.872,162.69,97.615
251.31,43.676,162,97.2
253.4,34.952,160.67,96.399
254.1,30.29,160.14,96.085
256.39,29.674,159.6,95.762
257.59,28.159,158.59,95.155
258.41,28.174,157.61,94.566
255.63,24.205,157.44,94.467
259.88,26.331,156.8,94.08
259.25,26.183,155.48,93.287
260.22,28.028,154.74,92.842
260.42,29.375,154.72,92.833
259.86,33.361,153.81,92.284
256.37,34.014,153.48,92.088
255.6,36.97,153.38,92.028
255.81,40.918,152.65,91.592
256.15,45.919,152.76,91.657
265.28,75.659,152.2,91.321
267.62,82.711,151.06,90.634
274.11,91.452,150.43,90.261
286.07,101.6,149.03,89.416
295.17,107.32,148.62,89.17
303.56,112.87,148.24,88.945
284.03,93.159,148.55,89.129
279.97,100.25,147.84,88.702
288.89,116.45,148.49,89.094
291.4,138.33,147.26,88.356
298.15,161.59,147.17,88.305
304.29,170.85,147.42,88.454
310.92,177.83,147.61,88.567
316.23,182.55,148.05,88.832
323.76,184.84,147.5,88.502
334.92,187.08,148.33,89
340.65,186.61,148.31,88.986
345.4,187.06,148.16,88.895
347.7,188.45,148.72,89.23
347.79,188.8,148.56,89.135
338.17,190.44,149.19,89.517
328.71,189.5,149.79,89.873
316.21,187.82,148.73,89.235
304.86,186.64,148.78,89.271
291.87,184.91,148.11,88.867
275.87,181.3,149.04,89.422
266.1,180.48,149.84,89.902
266.69,181.57,152.43,91.457
264.27,182.62,155.28,93.167
262.66,182.66,156.29,93.772
272.79,186.13,156.42,93.855
279.73,189.23,156.52,93.914
291.64,193.12,156.7,94.018
306.05,198.56,156.23,93.736
320.91,203.41,155.35,93.213
357.9,210.59,155.01,93.008
375.7,213.13,154.71,92.829
389.69,214.93,154.82,92.894
394.98,212.45,154.97,92.981
399.54,213.68,156.75,94.052
487.25,187.14,157.02,94.213
492.57,185.27,156.62,93.974
500.48,171.4,155.48,93.286
390.56,207.43,155.72,93.434
387.3,209.31,156.16,93.699
373.36,211.13,156.89,94.133
360.58,212.71,156.68,94.007
345.61,213.84,156.06,93.636
336.23,211.65,156.35,93.808
326.35,210.09,157.13,94.279
320.23,208.57,157.16,94.298
306.55,206.03,158.4,95.041
305.54,206.77,158.12,94.875
305.5,208.77,158.31,94.986
303.81,211.29,156.71,94.024
304.77,210.25,156.03,93.617
313.43,210.86,156.63,93.981
317.51,211.09,156.47,93.884
322.18,211.39,156.02,93.611
329.13,210.16,155.74,93.441
336.27,209.53,155.24,93.145
344.32,209.5,154.9,92.939
343.58,209.99,155.46,93.277
322.74,152.15,154.94,92.964
315.65,140.22,153.17,91.9
307.98,138.4,152.82,91.694
300.73,210.83,151.88,91.126
292.97,205.54,152.08,91.248
269.64,201.12,152.99,91.792
243.42,202.12,153.63,92.177
216.12,200.28,154.71,92.825
174.87,195.22,154.82,92.894
154.92,191.39,155.33,93.201
137.37,187.02,156.51,93.909
123.93,183.23,156.89,94.133
112.31,180.56,157.66,94.596
104.57,178.23,157.9,94.737
104.66,177.01,158.97,95.38
111.51,179.22,159.03,95.419
122.67,181.99,158.73,95.236
138.75,186.13,159.06,95.438
180.07,191.25,159.95,95.968
204.49,194.64,159.19,95.514
230.57,195.91,158.97,95.381
257.77,194.34,158.36,95.017
277.1,191.47,158.26,94.955
305.04,189.49,158.43,95.058
308.98,186.66,157.96,94.776
313.57,183.59,157.53,94.516
323.28,185.18,157.62,94.573
326.19,185.48,157.11,94.267
317.12,186.87,157.43,94.457
308.28,189.37,157.41,94.448
296.71,191.02,158.74,95.242
280.44,191.25,160.31,96.183
264.22,188.54,162.17,97.302
240.47,184.1,164.13,98.476
230.28,180.4,166.13,99.677
222.25,176.55,168.28,100.97
216.35,174.57,170.47,102.28
215.53,172.15,172.54,103.52
220.01,171.16,173.42,104.05
230.63,171.17,172.89,103.73
246.32,176.25,173.05,103.83
255.66,181.55,171.89,103.14
266.22,182.98,171.31,102.79
316.83,183.97,170.98,102.59
323.93,186.11,170.53,102.32
338.35,190.51,171.39,102.84
353.59,192.15,172.53,103.52
368.62,194.92,172.65,103.59
401.23,194.04,171.43,102.86
417.07,195.76,172.21,103.33
427.5,196.49,171.27,102.76
474.4,141.82,171.11,102.66
453.75,139.78,171.24,102.74
420.69,136.57,172.27,103.36
413.64,135.59,172.75,103.65
405.73,135.14,173.06,103.84
402.19,136.2,172.27,103.36
398.87,137.28,170.5,102.3
404.27,144.02,170.76,102.45
417.45,147.01,171.07,102.64
428.86,149.73,171.33,102.8
360.8,196.64,170.87,102.52
342.88,192.08,172.17,103.3
293.4,187.19,173.44,104.07
278.52,181,172.8,103.68
253.93,184.91,173.64,104.18
237.5,184.79,172.68,103.61
224.92,185.4,173.12,103.87
215.49,188.1,173.38,104.03
216.32,188.64,172.68,103.61
223.53,194.61,170.48,102.29
234.55,198.85,168.73,101.24
247.26,201.65,166.79,100.07
275.46,204.74,166.32,99.795
289.81,203.44,164.77,98.863
301.51,201.91,163.33,97.996
309.42,200.86,162.23,97.34
310.19,201.66,161.23,96.737
305.48,201.27,160.75,96.452
298.81,198.45,160.12,96.072
287.82,196.87,159.18,95.505
273.17,198.24,158.74,95.243
255.75,200.02,159.16,95.497
222.58,201.59,159.4,95.64
209.56,200.38,160.13,96.078
200.17,198.61,162.46,97.475
196.58,198.61,164.66,98.799
195.2,199.09,165.7,99.418
211.22,197.66,166.47,99.88
225.9,194.81,167.08,100.25
242.31,191.03,166.14,99.683
259.45,186.18,166.06,99.637
268.8,180.64,166.94,100.16
294.11,168.9,166.39,99.836
302.77,164.46,165.82,99.491
308.08,162.93,165.65,99.388
310.86,162.86,166.02,99.612
317.36,161.07,165.57,99.345
325,162.65,164.44,98.663
329.21,164.86,165.63,99.376
333.93,166.06,165.65,99.392
334.81,168.52,167.49,100.49
341.57,168.64,166.43,99.858
350.61,170.43,167.82,100.69
357.96,169.48,167.89,100.73
365.61,169,168.66,101.2
372.01,169.54,169.16,101.5
379.84,166.67,169.24,101.55
386.28,165.83,169.31,101.59
387.06,162.64,169.17,101.5
390.27,165.81,169.38,101.63
390.17,168.76,169.19,101.51
390.28,170.17,167.88,100.73
386.44,174.46,168.01,100.8
381.53,171.78,167.68,100.61
381.5,172.47,166.48,99.888
380.8,171.72,165.81,99.488
379.96,172.9,166.45,99.87
378.71,171.96,165.44,99.265
379.53,173.57,166.13,99.678
380.38,174.17,166.94,100.17
379.47,175.01,166.95,100.17
377.93,176.38,167.02,100.21
372.62,172.79,167.4,100.44
370.73,170.72,168.07,100.84
368.25,167.36,169.38,101.63
366.32,162.73,169.78,101.87
366.38,158.29,168.32,100.99
369.97,153.58,167.26,100.36
372.56,149.96,166.19,99.715
374.26,146.02,165.19,99.114
377.27,143.23,165.05,99.029
381.38,140.52,164.01,98.405
387.85,137.1,163.45,98.071
391.31,135.68,162.33,97.4
393.16,135.76,161.74,97.043
394.01,136.2,160.81,96.483
393.49,136.07,159.56,95.738
393.51,137.91,159.49,95.692
392.32,139.98,159.58,95.75
390.32,140.12,159.58,95.746
387.87,144.98,158.2,94.921
390.5,142.74,157.5,94.5
386.51,142.33,157.8,94.679
377.77,148.74,157.45,94.47
370.7,156.53,157.68,94.611
363.56,166.07,157.87,94.725
353.45,165.61,157.27,94.364
348.12,167.8,156.85,94.11
350.72,170.09,157.65,94.591
351.27,169.51,159.13,95.48
353.43,169.28,159.21,95.527
354.88,169.91,159.75,95.851
359.65,171.06,158.39,95.036
361.75,171.6,157.06,94.235
363.49,171.89,156.93,94.16
364.65,172.55,156.74,94.042
365.42,172.19,157.02,94.213
366.17,173.23,157.27,94.364
365.95,173.12,156.95,94.172
365.82,173.71,157.99,94.797
365.62,173.63,158.27,94.964
366.07,173.71,158.63,95.176
365.98,174.28,159.46,95.675
365.66,175.29,159.55,95.729
365.33,175.39,159.69,95.813
364.35,175.33,160.69,96.416
364.32,175.5,160.34,96.202
364.13,175.62,160.09,96.057
363.52,176.62,159.38,95.625
362.84,177.3,159.22,95.53
363.84,176.68,159.16,95.498
364.15,177.29,160.1,96.06
364.4,177.84,159.94,95.967
364.91,178.46,161.29,96.775
365.4,179.04,161.28,96.767
364.79,179.34,161.72,97.034
365.56,178.49,162.23,97.337
365.26,177.92,162.73,97.639
365.03,177.78,162.07,97.243
365.01,177.23,160.15,96.09
365.01,177.12,159.72,95.833
364.65,176.9,159.83,95.898
365.13,177.52,159.77,95.863
364.84,177.27,159.78,95.867
365.2,177.58,159.59,95.756
365.29,177.52,159.45,95.668
365.33,177.7,160.64,96.383
366.09,178.41,160.07,96.043
365.94,178.71,161.32,96.79
365.97,178.37,161.28,96.766
365.87,178.34,161.43,96.861
365.84,178.27,161.31,96.785
366.33,178.26,160.06,96.036
366.62,178.4,159.56,95.733
365.78,177.68,160.13,96.076
365.72,177.81,160.11,96.068
365.38,177.88,160.31,96.187
365.72,178.34,159.43,95.66
365.17,178.67,161.11,96.669
364.99,179.03,161.5,96.897
364.5,178.51,161.27,96.764
364.61,178.49,159.64,95.787
363.83,177.37,160.42,96.252
364,176.14,158.97,95.383
364.15,174.47,156.18,93.71
365.29,171.87,154.59,92.754
366.38,168.17,154.09,92.452
368.21,163.81,154.37,92.62
374.79,156.81,153.63,92.175
378.29,154.72,157.3,94.377
381.67,155.09,157.77,94.659
384.67,150.84,157.54,94.523
388.47,143.38,156.31,93.784
388.55,142.39,155.01,93.003
389.23,145.57,153.76,92.258
386.96,146.78,153.58,92.146
384.9,150.7,152.93,91.76
377.98,161.77,154.8,92.878
376.68,163.85,154.04,92.425
375.04,165.25,154.47,92.681
374.69,165.35,155.8,93.48
378.94,162.73,156.17,93.701
385.52,157.89,156.01,93.607
398.42,153.51,156.26,93.757
406.97,151.85,157.18,94.308
416.4,150.56,157.07,94.244
425.08,150.18,156.93,94.157
432.29,151.03,156.45,93.869
441.98,153.55,157.25,94.347
446.41,155.31,156.67,94.003
450.3,156.37,155.82,93.493
454.7,156.85,156,93.6
457.45,157.05,155.52,93.314
463.18,156.89,156.47,93.881
466.97,157.34,156.46,93.874
470.26,156.87,157.04,94.223
474.18,156.55,157.61,94.568
478.63,156.5,158.48,95.086
483.59,155.81,159.72,95.833
484.91,155.5,158.7,95.22
485.49,155.44,158.2,94.918
486.12,155.58,157.3,94.383
485.53,154.67,157.48,94.488
485.43,154.11,156.96,94.174
481.28,152.58,158.29,94.975
476.03,150.92,159.92,95.954
470.39,148.95,160.58,96.345
458.88,146.78,161.58,96.947
440.88,144.26,161.85,97.111
427.78,144.35,161.55,96.928
412.5,147.46,160.09,96.053
398.07,148.88,160.38,96.231
388.14,153.42,160.71,96.426
366.73,160.95,162.07,97.241
357.05,166.45,163.98,98.39
349.36,171.65,165.61,99.366
343.76,174.85,167.74,100.64
339,180.11,166.44,99.867
342.03,188.27,165.08,99.048
352.65,190.45,164.96,98.976
359.66,190.99,166.14,99.683
363.79,192.67,168.06,100.84
373.12,194.22,169.24,101.54
395.82,190.31,169.62,101.77
406.44,189.36,171.43,102.86
415.86,188.39,173.1,103.86
423.53,183.28,173.81,104.28
433.77,180.4,173.09,103.86
447.13,176.13,173.13,103.88
450.04,172.45,174.19,104.51
453.44,167.76,175.58,105.35
457.26,165.21,175.89,105.53
459.55,162.11,176.07,105.64
456.34,163.83,175.22,105.13
454.61,163.91,174.13,104.48
450.85,166.31,173.04,103.82
446.68,169.62,172.84,103.7
443.46,175.06,172.53,103.52
438.2,175.08,173.23,103.94
434.58,174.56,174.51,104.7
436.39,174.66,174.44,104.66
436.45,174.93,174.25,104.55
438.42,174.12,174.51,104.71
441.41,171.01,175.36,105.21
446.06,169.4,175.13,105.08
449.19,167.35,174.79,104.87
449.66,165,172.92,103.75
451.72,165.22,171.03,102.62
448.8,166.36,170.05,102.03
444.69,168.68,169.53,101.72
441.37,171.01,169.18,101.51
439.97,173.08,169.35,101.61
439.38,174.54,169.62,101.77
436.03,178.27,169.65,101.79
435.51,177.14,169.25,101.55
437.24,176.15,169.38,101.63
436.82,173.98,169.27,101.56
437.47,174.06,169.66,101.8
439.12,173.27,169.71,101.82
442.63,172.28,169.96,101.97
442,173.48,169.63,101.78
441.27,176.91,169.69,101.82
444.5,171.91,170.62,102.37
444.68,164.26,172.03,103.22
439.69,173.9,170.61,102.36
439.47,176.31,170.69,102.41
437.59,174.65,170.9,102.54
434.12,179.21,169.49,101.69
430.77,179.93,168.17,100.9
414.41,178.74,168.79,101.27
417.09,179.36,168.65,101.19
410.14,181.51,167.85,100.71
409.22,180.53,168.39,101.04
407.43,177.43,168.24,100.95
408.72,179.92,168.72,101.23
411.24,181.3,168.96,101.37
408.48,181.1,168.46,101.08
413.17,182.18,168.2,100.92
413.97,183.91,168.96,101.38
404.24,183.1,169.23,101.54
397.95,183.54,168.85,101.31
386.74,180.99,168.78,101.27
376.19,180.07,168.6,101.16
352.97,178.48,168.92,101.35
337.32,174.77,168.27,100.96
321.41,171.13,167.07,100.24
309.74,166.83,164.99,98.993
298.04,162.05,163.86,98.313
288.25,154.24,162.57,97.544
286.61,150.15,161.76,97.055
290.76,148.56,161.11,96.665
298.88,146.05,159.33,95.597
311.28,145.54,157.34,94.402
320.27,143.14,154.31,92.588
351.72,138.91,152.75,91.648
363.89,134.05,152.18,91.305
375.66,130.75,151.82,91.094
386.24,126.69,151.89,91.132
397.53,124.69,152.07,91.241
416.03,119.62,150.81,90.486
