465.5,124.5,40,63
467.29,124.51,39.966,62.947
468.13,123.22,40.52,63.819
469.13,122.33,40.665,64.047
470.51,121.38,41.235,64.944
471.98,120.94,41.452,65.287
474.4,120.29,42.857,67.5
475.75,119.1,43.668,68.777
476.7,117.2,44.089,69.44
478.05,118.18,43.539,68.574
478.94,118.06,42.89,67.552
479.88,116.89,43.06,67.82
480.13,115.99,42.413,66.8
481.4,116.24,42.182,66.437
483.85,117.08,41.809,65.849
485.65,116.38,41.89,65.976
486.46,115.46,41.41,65.22
487.76,115.24,40.739,64.164
488.35,115.29,40.271,63.426
488.14,114.92,40.228,63.36
488.21,113.85,40.453,63.713
488.69,112.79,40.325,63.513
489.78,112.82,39.889,62.825
491.18,113.41,39.421,62.088
492.27,112.27,39.805,62.693
492.75,111.69,39.555,62.299
493.73,112.15,39.092,61.57
494.04,112.2,38.939,61.329
494.56,111.4,38.999,61.423
495.4,110.55,39.023,61.461
495.83,110.1,38.919,61.298
496.23,110.44,39.077,61.547
496.61,110.18,39.103,61.588
497.01,109.33,39.381,62.025
497.53,108.6,39.455,62.141
497.41,108.43,39.684,62.502
498.18,108.46,39.923,62.879
498.04,108.13,39.857,62.775
498.24,107.46,39.977,62.964
499.37,106.73,40.006,63.01
499.74,106.89,40.205,63.322
500.7,106.84,40.432,63.681
501.33,106.43,40.055,63.086
501.64,105.91,39.679,62.495
501.81,105.94,39.502,62.215
502.01,106.44,39.622,62.405
502.33,105.91,40.131,63.206
502.42,106.02,40.088,63.139
502.8,105.4,39.959,62.936
487.35,105.62,39.884,62.817
470.95,106.49,39.733,62.58
451.52,106.64,39.652,62.453
433.17,105.74,39.401,62.057
416.64,106.41,39.309,61.912
399.54,106.43,39.116,61.607
382.98,107.14,38.916,61.292
384.81,105.63,38.576,60.756
392.19,104.61,38.506,60.646
391.33,104.6,38.598,60.792
392.7,104.09,38.712,60.972
393.05,103.55,38.827,61.152
387.31,103.16,39.05,61.504
370.98,102.95,38.857,61.2
354.69,103.01,38.765,61.055
337.88,102.68,38.72,60.984
323,102.8,38.452,60.563
308.72,102.23,38.307,60.334
306.66,102.38,38.155,60.094
309.87,102.47,38.104,60.013
309.33,102.54,38.315,60.346
309.42,101.53,38.512,60.657
310.91,101.21,38.485,60.614
311.22,101.71,38.536,60.694
311.37,101.44,38.537,60.696
311.62,100.57,38.569,60.747
312.18,99.907,38.551,60.718
312.86,99.875,38.517,60.664
313.9,100.39,38.12,60.039
315.3,100.29,37.723,59.414
316.28,99.269,37.486,59.04
317.1,98.961,37.375,58.866
317.87,98.367,37.353,58.831
319.13,98.473,37.148,58.509
319.82,98.386,37.019,58.305
309.51,99.076,37.362,58.844
292.15,97.773,37.26,58.684
274.22,97.894,37.238,58.65
258.49,98.945,37.204,58.596
241.85,100.25,37.272,58.703
223.45,98.536,37.134,58.487
210.05,99.229,36.921,58.151
206.98,99.413,36.618,57.673
206.92,99.871,36.546,57.559
207.68,99.191,36.374,57.289
208.16,99.4,36.362,57.27
208.28,99.697,36.264,57.116
208.08,100.56,36.187,56.995
208.08,99.713,36.329,57.218
209.53,99.321,36.197,57.011
210.01,97.094,36.095,56.849
211.09,97.021,35.743,56.296
211,98.14,35.619,56.1
211.28,99.231,35.822,56.419
211.48,97.81,35.985,56.676
212.15,98.458,36.042,56.766
213,98.525,36.003,56.704
214.54,98.73,35.913,56.562
215.63,98.083,36.074,56.817
215.83,96.645,36.245,57.086
216.79,97.068,36.15,56.937
217.24,96.438,36.125,56.896
217.82,95.768,36.205,57.022
218.25,95.172,36.163,56.957
218.7,95.208,36.131,56.906
219.15,95.352,35.88,56.511
220.07,95.66,35.748,56.303
220.17,94.977,35.531,55.961
220.62,94.891,35.424,55.792
220.1,94.207,35.348,55.674
219.87,93.982,35.243,55.508
219.85,93.218,35.213,55.461
219.94,92.991,35.193,55.428
219.67,93.173,35.013,55.145
219.41,92.956,34.963,55.066
219.69,92.949,34.961,55.063
191.14,92.245,34.935,55.022
162.39,93.172,34.885,54.944
128.93,93.025,34.754,54.738
108.76,93.293,34.614,54.517
111.3,92.601,34.368,54.129
113.34,91.861,34.089,53.69
115.04,92.249,33.923,53.428
115.82,90.894,33.749,53.154
117.56,91.39,33.807,53.246
119.35,91.332,33.756,53.165
120.59,90.334,33.613,52.941
121.59,91.192,33.454,52.69
123.13,100.3,33.519,52.793
127.43,122.75,33.55,52.841
133.65,139.82,33.686,53.055
140.51,158.52,33.443,52.672
146.22,159.05,33.363,52.546
155.32,158.31,33.189,52.273
165.01,160.69,33.186,52.268
172.73,177.18,33.262,52.387
183.6,201.78,33.264,52.391
194.9,220.59,33.148,52.208
201.83,220.91,33.08,52.102
209.94,220.08,33.032,52.025
215.67,218.69,33.064,52.076
223.5,217.68,32.976,51.938
230.85,217.99,33.276,52.409
240.53,219.92,33.298,52.445
247.61,219.93,33.387,52.585
255.25,219.56,33.515,52.787
263.55,217.01,33.538,52.823
272.27,217.15,33.457,52.695
282.28,216.97,33.348,52.523
290.49,217.69,33.419,52.636
299.8,215.59,33.342,52.514
307.71,215.98,33.251,52.37
316.27,215.6,33.253,52.373
324.75,215.04,32.998,51.972
332.19,215.31,32.821,51.694
339.99,213.05,32.767,51.608
346.58,212.96,32.759,51.596
354.2,212.09,32.723,51.538
360.71,212,32.639,51.406
368.39,211.23,32.66,51.439
374.89,211.12,32.765,51.604
382.38,210.53,32.69,51.487
387.07,209.69,32.719,51.532
392.77,209.55,32.665,51.447
398.49,208.79,32.59,51.33
403.81,209.57,32.615,51.368
408.66,208.28,32.676,51.465
412.73,208.08,32.581,51.315
417.51,207.57,32.419,51.059
421.57,206.99,32.28,50.842
426.69,206.72,32.14,50.62
430.78,205.7,32.069,50.509
434.46,206.32,31.861,50.182
437.62,205.1,31.684,49.902
441.68,205.55,31.623,49.806
444.8,204.05,31.646,49.843
447.58,204.07,31.63,49.818
449.63,203.67,31.654,49.855
452.27,202.94,31.611,49.787
455.48,202.83,31.6,49.769
458.01,201.73,31.618,49.798
459.37,201.84,31.564,49.713
460.82,201.2,31.478,49.578
461.64,200.71,31.566,49.716
462.5,200.4,31.451,49.535
462.74,199.45,31.322,49.332
463.05,199.89,31.121,49.016
462.74,198.59,30.934,48.72
463.38,199.04,30.76,48.447
464.38,198.42,30.449,47.958
464.88,197.79,30.53,48.085
465.5,197.59,30.434,47.934
466.42,196.8,30.426,47.921
467.95,196.86,30.346,47.794
469.73,195.74,30.363,47.822
470.51,195.49,30.315,47.747
470.67,194.99,30.246,47.638
471.19,194.4,30.192,47.553
472.18,194.69,30.034,47.303
472.52,193.45,29.869,47.044
472.63,194.1,29.641,46.684
472.63,192.76,29.508,46.475
473.6,193.14,29.281,46.118
475.37,192.33,29.144,45.902
477.01,191.57,29.126,45.873
479.76,192.04,28.998,45.671
482.37,191.64,29.245,46.061
463.28,192.85,29.735,46.833
466.18,191.48,30.026,47.291
470.01,190.46,30.085,47.384
472.18,190.36,30.138,47.468
477.25,188.97,29.84,46.998
479.66,189.04,29.794,46.925
481.86,188.95,29.684,46.752
485.25,189.21,29.512,46.481
528.92,189.35,29.47,46.416
533.03,188.85,29.305,46.156
536.96,187.18,29.285,46.123
539.35,185.97,29.166,45.936
542.45,185.81,29.074,45.792
545.63,185.23,28.808,45.373
548.34,185.51,28.573,45.002
553.89,185.6,28.587,45.025
557.49,185.05,28.393,44.72
559.76,184.23,28.308,44.585
563.23,184.03,28.153,44.341
567.39,184.43,28.364,44.674
570.5,183.29,28.502,44.891
573.41,183.11,28.402,44.732
576.18,182.65,28.388,44.712
578.63,181.33,28.217,44.441
581.61,182.21,28.416,44.754
584.59,181.42,28.457,44.82
587.05,181.04,28.216,44.44
589.46,181.61,28.372,44.687
590.49,180.62,28.322,44.608
592.72,181.04,28.181,44.385
594.99,180.48,28.31,44.588
595.92,180.2,28.499,44.886
596.54,179.66,28.485,44.865
597.44,178.7,28.502,44.891
598.15,178.96,28.416,44.755
599.47,178.4,28.475,44.848
599.99,178.08,28.66,45.139
600.7,178.34,28.66,45.14
600.75,177.51,28.639,45.106
601.14,177.07,28.593,45.033
601.95,176.17,28.532,44.938
602.36,176.05,28.553,44.971
