438.5,342.5,35,82
438.52,343.64,35.06,82.141
438.98,343.62,35.041,82.095
439.49,343.48,35.119,82.279
440.21,343.72,35.051,82.12
441.42,344.6,34.628,81.128
442.54,344.82,34.808,81.55
443.16,344.76,34.852,81.653
443.82,345.29,34.837,81.618
444.83,345.53,34.756,81.429
442.91,344.83,35.046,82.108
433.75,344.81,34.936,81.85
419.77,344.79,34.72,81.345
404.08,344.17,35.191,82.447
392.49,342.66,35.224,82.526
392.16,342.73,35.324,82.759
392.11,342.43,35.426,82.997
393.31,342.85,35.666,83.561
393.32,342.49,36.074,84.516
393.5,342.75,36.076,84.52
394.06,343.34,36.016,84.38
394.99,343.99,35.92,84.157
395.42,344.08,36.321,85.095
395.84,343.86,36.445,85.385
396.26,343.85,36.645,85.855
396.56,344.03,36.618,85.791
396.77,343.94,36.686,85.95
397.5,343.77,36.705,85.995
397.8,343.79,36.442,85.378
398.45,343.7,36.675,85.924
399.01,343.9,36.574,85.687
399.73,344.53,36.689,85.957
400.37,344.33,36.908,86.47
401.41,344.92,36.759,86.121
401.61,344.83,36.755,86.112
403.12,345.44,36.586,85.716
404.6,345.84,36.72,86.029
405.12,345.53,36.82,86.264
406.03,345.78,36.837,86.305
406.6,345.7,36.905,86.462
407.76,345.7,37.029,86.755
407.73,345.36,37.223,87.207
408.54,345.52,37.383,87.582
408.61,345.37,37.391,87.602
409.4,345.48,37.413,87.654
410.19,345.7,37.537,87.944
411.05,346.55,37.739,88.418
411.48,346.37,37.787,88.529
412.53,347.19,37.939,88.887
413.08,347.52,37.992,89.011
413.38,347.48,38.05,89.146
413.72,347.55,38.109,89.284
414.22,347.7,38.129,89.331
415.28,347.34,38.617,90.473
416.05,347.25,38.827,90.966
416.97,347.1,38.978,91.321
417.56,346.8,38.925,91.196
418.9,346.92,39.142,91.705
419.64,347.35,39.115,91.64
420.69,347.69,38.994,91.357
422.19,347.46,39.079,91.555
423.09,347.61,39.094,91.592
424.74,347.88,39.227,91.904
426.39,348.66,39.383,92.269
427.57,348.19,39.436,92.393
428.83,348.16,39.704,93.02
429.49,348,39.76,93.153
430.48,348.15,40.017,93.755
431.05,347.85,40.202,94.188
431.85,348.12,40.297,94.41
432.57,347.98,40.575,95.062
433.51,348.47,40.627,95.183
435.07,348.87,40.522,94.938
436.04,349.28,40.688,95.326
436.91,349.35,40.664,95.269
437.98,349.4,40.834,95.668
439.56,350.11,41.072,96.226
440.16,349.81,41.258,96.662
441.87,350.05,41.254,96.653
442.87,350.05,41.324,96.816
443.88,349.69,41.524,97.285
445.35,349.65,41.871,98.099
446.34,349.54,41.968,98.325
447.6,349.36,42.012,98.428
448.92,349.34,41.984,98.362
450.66,349.91,41.741,97.792
452.59,350.7,41.691,97.676
454.44,350.72,41.699,97.694
456.35,351.58,41.781,97.888
457.88,352.38,41.725,97.756
459.58,352.28,41.786,97.898
461.05,352.03,41.856,98.063
461.97,351.87,42.09,98.612
463.13,351.2,42.487,99.541
464.23,350.96,42.728,100.11
465.64,351.01,42.724,100.1
467.33,351.05,42.65,99.922
468.66,351.33,42.872,100.44
470.38,351.99,42.763,100.19
471.52,352.57,42.81,100.3
473.24,352.89,42.912,100.54
474.94,353.07,43.191,101.19
476.03,353.34,43.369,101.61
477.11,353.41,43.498,101.91
478.55,353.26,43.606,102.16
479.86,353.1,43.887,102.82
481.04,352.79,44.173,103.49
482.13,352.71,44.325,103.85
483.55,352.71,44.308,103.81
485.21,352.72,44.345,103.9
487.24,352.55,44.367,103.94
489.32,352.97,44.158,103.45
491.22,353.98,44.026,103.15
494.16,355.06,43.703,102.39
496.4,355.79,43.761,102.53
498.79,356.05,44.066,103.24
501.14,356.07,44.3,103.79
503.54,355.59,44.648,104.6
504.49,355.72,44.812,104.99
505.31,355.49,44.892,105.18
507.27,355.29,45.072,105.6
509.05,355.34,45.076,105.61
511.33,355.19,45.106,105.68
512.9,355.42,45.081,105.62
515.1,355.92,45.157,105.8
517.29,356.28,45.282,106.09
519.97,357.32,45.383,106.33
521.18,357.3,45.644,106.94
523.15,357.68,46.019,107.82
525.01,357.91,46.098,108
526.43,357.54,46.227,108.3
528.57,358.58,46.408,108.73
529.58,357.95,46.624,109.23
531.15,358.01,46.861,109.79
532.09,357.55,46.902,109.88
534.19,357.67,47.012,110.14
536.23,357.28,47.311,110.84
538.67,357.73,47.37,110.98
539.85,357.6,47.375,110.99
541.58,357.96,47.435,111.13
544.75,358.34,47.335,110.9
548.39,359.23,47.451,111.17
550.39,359.11,47.582,111.48
553.23,359.61,47.852,112.11
554.31,359.31,47.96,112.36
555.88,359.62,48.059,112.6
557.49,359.33,47.93,112.29
560.05,359.51,48.226,112.99
562.04,359.64,48.634,113.94
563.99,359.44,48.895,114.55
566.16,359.92,49.004,114.81
568.96,360.13,49.207,115.28
570.8,360.65,49.127,115.1
572.94,361.12,49.064,114.95
575.27,361.74,48.873,114.5
577.51,362.09,48.839,114.42
580.1,362.14,49.056,114.93
581.98,362.17,49.194,115.26
583.92,362.47,49.248,115.38
585.67,362.41,49.761,116.58
586.82,361.82,50.164,117.53
588.75,361.7,50.32,117.89
590.9,361.8,50.526,118.38
592.99,361.47,50.654,118.68
594.61,361.57,50.516,118.35
595.42,362.12,50.417,118.12
599.5,362.83,50.269,117.77
603.28,362.98,50.16,117.52
605.59,363.9,50.329,117.91
608.17,363.64,50.54,118.41
608.54,363.92,50.685,118.75
606.46,365.08,50.64,118.64
602.12,365.85,50.692,118.76
596.73,366.59,50.848,119.13
589.26,367.09,50.98,119.44
580.99,367.49,50.73,118.85
570.25,368.29,51.049,119.6
566.2,368.38,51.344,120.29
565.17,368.32,51.513,120.69
565.28,368.71,51.895,121.58
564.95,369.02,51.856,121.49
563.61,369.65,52.142,122.16
557,369.34,52.265,122.45
551.67,369.27,51.962,121.74
543.21,369.73,51.868,121.52
531.85,369.69,51.748,121.24
520.98,369.9,51.691,121.11
517.84,369.75,51.864,121.51
515.83,369.91,51.786,121.33
513.38,370.4,51.828,121.43
510.48,370.78,52.136,122.15
499.23,372.41,52.117,122.1
490.12,373.55,52.397,122.76
479.48,374.56,52.588,123.21
469.74,374.72,52.635,123.32
468.65,374.5,52.467,122.92
470.17,374.91,52.507,123.02
473.07,374.55,52.7,123.47
473.15,375.3,52.758,123.6
470.22,374.95,52.661,123.38
465.88,375.05,52.537,123.09
460.64,375.09,52.576,123.18
460.56,376.16,52.666,123.39
463.13,377.61,52.995,124.16
464.05,378.45,52.953,124.06
464.77,378.62,53.22,124.69
460.84,378.84,53.239,124.73
452.23,378.88,53.288,124.85
441.22,379.04,53.568,125.5
430.35,379.11,53.695,125.8
425.47,379.32,53.873,126.22
425.17,379.25,54,126.52
427.34,380.34,54.338,127.31
429.08,379.79,54.593,127.9
430.08,379.58,54.831,128.46
430.73,380.39,54.924,128.68
430.97,381.34,54.85,128.51
431.22,382.53,54.646,128.03
432.5,383.71,54.295,127.2
434.26,384.49,54.116,126.79
437.76,385.83,54.004,126.52
444.44,386.18,54.233,127.06
447.68,385.66,54.35,127.33
451.41,385.65,54.782,128.35
455.66,383.71,54.768,128.31
463.35,383.49,54.454,127.58
470.15,385.35,54.441,127.55
476.95,386.71,54.401,127.45
481.86,387.79,54.707,128.17
487.11,389.27,54.827,128.45
494.24,390.51,54.566,127.84
501.94,392.01,54.829,128.46
507.77,393.25,54.919,128.67
509,393.87,54.833,128.47
509.66,395.1,54.795,128.38
507.08,396.66,54.954,128.75
511.73,397.18,55.32,129.61
515.33,397.53,55.529,130.1
524.59,396.02,55.566,130.18
539.36,393.54,55.746,130.61
546.89,392.32,56.095,131.42
558.22,394.26,56.287,131.87
560.09,395.86,56.836,133.16
564.52,397.35,57.255,134.14
578.21,396.87,57.368,134.41
591.52,395.69,57.069,133.71
606.55,395.85,56.797,133.07
607.96,395.8,56.762,132.99
615.78,395.95,56.961,133.45
623.49,395.35,57.157,133.91
628.76,395.39,56.826,133.14
633.45,397.31,56.689,132.81
643.78,400.77,57.142,133.88
655.08,399.71,57.512,134.74
666.69,399.96,57.473,134.65
678.19,396.15,57.054,133.67
674.83,396.45,57.048,133.66
697.05,392.9,56.978,133.49
707.13,392.66,56.506,132.39
715.31,394.62,56.442,132.23
716.87,397.39,56.772,133.01
721.42,396.3,56.869,133.24
722.99,397.77,56.649,132.72
718.79,397.45,56.496,132.36
724.58,397.27,56.169,131.6
730.69,395.99,55.625,130.32
736.5,396.27,55.134,129.17
759.61,416.8,55.04,128.95
746.95,398.99,54.927,128.69
748.65,400.15,54.942,128.72
745.78,399.72,54.696,128.15
738.06,399.61,54.736,128.24
730.61,397.96,54.563,127.83
732.64,396.65,54.405,127.46
739.06,394.81,54.408,127.47
744.54,393.16,53.956,126.41
754.64,395.73,53.932,126.36
757.08,394.7,53.78,126
754.73,395.05,53.684,125.77
751.45,396.25,53.849,126.16
712,382.55,54.28,127.17
713.55,382.4,54.783,128.35
726.46,399.4,55.187,129.29
729.15,399.02,55.609,130.29
730.76,398.94,55.897,130.96
738.12,415.66,55.649,130.38
761.66,421.68,56.007,131.22
741.87,437.64,55.769,130.66
766.78,388.34,55.302,129.56
769.09,388.47,54.95,128.74
765.12,387.12,54.491,127.67
762.35,381.18,54.028,126.58
760.04,380.51,53.896,126.27
757.13,382.84,53.587,125.55
757.66,382.05,53.489,125.32
757.23,385.41,53.145,124.51
757.13,385.17,52.588,123.21
753.83,384.48,52.256,122.43
745.22,385.99,51.984,121.79
735.51,382.93,51.769,121.29
728.32,381.97,51.703,121.13
730.68,381.43,51.701,121.13
740.17,381.75,51.504,120.67
747.7,380.7,51.322,120.24
750.11,381.23,50.841,119.11
748.14,381.7,50.565,118.47
742.34,382.45,50.298,117.84
727.92,381.49,50.016,117.18
726.77,380.76,49.747,116.55
728.94,378.91,49.62,116.25
732.6,377.15,49.517,116.01
734.49,377.61,49.454,115.86
738.04,377.64,49.308,115.52
740.63,377.47,49.15,115.15
742.8,377.81,48.945,114.67
745.07,378.03,48.83,114.4
746.91,378.13,49.199,115.27
749.35,377.03,49.024,114.86
750.94,376.18,48.819,114.38
750.96,375.97,48.873,114.5
750.63,374.61,48.802,114.34
753.01,373.73,48.594,113.85
755.2,374.37,48.377,113.34
757.98,374.05,47.937,112.31
758.4,374.14,47.559,111.42
759.09,373.6,47.481,111.24
759.08,372.22,47.514,111.32
760.69,370.96,47.437,111.14
762.06,370.06,47.044,110.22
762.61,370.34,46.681,109.37
763.14,371.28,46.768,109.57
765.23,370.85,46.74,109.51
764.75,371.73,46.474,108.88
766.33,372.2,46.295,108.46
768.47,372.39,45.918,107.58
769.76,371.8,45.81,107.33
770.05,370.53,45.658,106.97
772.56,370.06,45.794,107.29
773.46,369.05,45.853,107.43
772.82,368.84,45.935,107.62
774.85,369.1,46.168,108.17
775.26,368.66,46.333,108.55
777.19,369.23,46.347,108.58
778.31,368.52,46.207,108.26
778.76,369.14,45.833,107.38
780,369.37,45.322,106.18
782.03,369.53,45.338,106.22
784.02,369.37,45.075,105.6
784.97,368.82,44.898,105.19
786.28,367.98,45.039,105.52
786.73,367.43,45.181,105.85
787.86,366.39,45.107,105.68
788.76,365.88,44.786,104.93
789.53,365.37,44.716,104.76
790.71,366.13,44.462,104.17
789.99,366.93,44.398,104.02
791.24,367.13,44.166,103.47
791.42,367.15,44.14,103.41
792.42,367.31,43.695,102.37
793.98,367.58,43.215,101.25
794.9,367.34,43.181,101.17
795.96,367.03,42.912,100.54
796.97,366.43,42.699,100.04
797.49,365.84,42.817,100.31
798.72,365.57,42.621,99.854
798.89,365.52,42.54,99.666
799.63,365.28,42.609,99.826
800.26,365.24,42.47,99.501
800.89,365.21,42.411,99.364
801.66,365.93,42.189,98.844
803.15,365.96,42.131,98.706
804.63,365.8,42.112,98.662
806.43,365.05,42.41,99.36
807.78,364.64,42.507,99.589
808.52,364.4,42.552,99.694
809.18,364.01,42.738,100.13
809.99,363.43,42.82,100.32
811.11,362.81,42.846,100.38
811.91,362.55,42.917,100.55
812.56,362.69,42.946,100.62
813.41,362.84,42.713,100.07
814.11,362.8,42.255,98.997
815.08,363.33,41.768,97.856
816.47,362.86,41.595,97.45
817.98,362.71,41.255,96.654
819.73,362.71,40.772,95.524
820.99,362.48,40.69,95.33
822.45,362.24,40.607,95.137
824.2,362.21,40.547,94.996
825.47,362.09,40.705,95.365
826.53,361.84,40.497,94.879
827.4,362.38,40.205,94.195
824.76,362.37,40.111,93.975
819.7,362.37,39.927,93.544
814.61,362.79,39.629,92.845
808.43,362.67,39.431,92.381
804.35,362.54,39.477,92.488
802.74,362.02,39.687,92.981
801.43,361.38,39.607,92.794
801.77,361.67,39.615,92.813
803,360.92,39.885,93.445
804.37,360.7,39.892,93.461
805.4,360.28,39.926,93.542
806.58,359.63,39.901,93.482
808.28,359.52,39.839,93.337
808.64,359.84,39.56,92.684
809.46,360.07,39.265,91.992
810.91,359.96,39.146,91.713
811.58,360.16,38.9,91.136
812.85,360.22,38.376,89.91
813.48,359.92,37.909,88.816
815.1,360.06,37.798,88.555
816.43,359.48,37.959,88.931
817.65,359.05,38.194,89.483
818.53,358.79,38.425,90.023
819.14,358.51,38.192,89.478
820.59,358.79,38.088,89.234
821.09,358.26,38.1,89.264
821.97,358.05,38.085,89.228
822.27,358.03,37.973,88.966
822.64,358.46,37.987,88.999
821.64,358.25,37.864,88.71
818.77,358.69,37.923,88.848
816.99,358.34,37.973,88.965
815.71,358.29,37.691,88.306
814.63,357.71,37.765,88.477
815.19,357.4,37.733,88.403
816.14,356.94,37.876,88.737
817.81,356.55,37.993,89.012
818.4,355.57,38.07,89.194
820.17,355.19,38.02,89.076
821.15,355.11,37.822,88.611
822.51,355.4,37.612,88.119
823.65,355.52,37.349,87.505
823.98,355.65,37.101,86.921
825.17,355.72,36.87,86.38
826.64,355.72,36.93,86.521
827.74,355.54,36.904,86.46
828.86,355.23,37.079,86.871
829.35,355.11,36.957,86.585
830.3,355.09,37.056,86.817
830.52,354.94,37.065,86.838
831.28,354.4,37.181,87.11
832.25,354.37,37.224,87.209
833.17,354.15,37.2,87.154
834.21,354.26,36.824,86.274
835.52,354.41,36.418,85.323
836.68,354.39,36.193,84.796
837.88,354.62,36.148,84.691
838.31,354.83,36.064,84.492
838.5,354.31,36.225,84.87
839.14,354.45,36.377,85.227
839.06,353.79,36.569,85.675
839.74,353.9,36.812,86.246
839.3,353.38,36.967,86.608
838.59,353.26,36.864,86.368
837.41,353.03,36.912,86.479
834.34,352.29,37.078,86.868
832.97,351.95,36.765,86.135
832.31,351.99,36.534,85.595
832.83,352.87,36.361,85.188
832.44,352.62,36.288,85.017
833.06,352.5,36.257,84.944
833.12,352.43,36.223,84.866
832.62,352.05,36.38,85.233
832.36,351.82,36.083,84.538
831.99,351.35,36.073,84.514
832.01,351.25,35.9,84.108
832.57,351.16,35.936,84.194
832.43,350.72,35.873,84.046
832.43,350.59,35.839,83.966
832.89,350.55,35.608,83.424
833.11,350.57,35.358,82.838
832.53,350.45,35.124,82.29
832.12,350.9,34.997,81.992
832.42,350.99,34.865,81.683
833.8,351.12,34.759,81.435
835.56,351.37,34.708,81.317
838.13,351.1,34.911,81.791
839.33,350.48,35.243,82.57
840.76,350.28,35.512,83.2
841.39,349.7,35.468,83.097
842.49,349.12,35.672,83.574
844.19,348.62,35.769,83.802
845.74,348.9,35.38,82.89
847.01,349.16,35.006,82.015
848.34,349.56,34.639,81.154
849.38,349.79,34.391,80.574
850.75,349.94,34.281,80.315
852.08,349.8,34.237,80.213
853.32,349.48,34.23,80.197
854.23,349.29,34.422,80.645
855.51,348.8,34.76,81.438
856.72,348.3,34.748,81.409
857.98,347.63,35,82.001
859,347.87,34.623,81.117
860.15,347.61,34.492,80.809
861.08,347.36,34.384,80.557
862.63,347.71,33.865,79.34
864.02,347.99,33.55,78.604
865.48,348.19,33.308,78.036
867.15,348.45,33.148,77.661
868.24,348.36,33.169,77.71
869.76,348.22,33.088,77.521
871.51,348.05,33.257,77.916
871.5,347.58,33.024,77.37
872.5,347.34,33.075,77.491
872.92,347.11,33.177,77.729
871.54,346.66,33.214,77.815
864.52,347.65,33.026,77.376
855.56,348.15,32.719,76.655
845.92,348.47,32.59,76.354
836.54,348.68,32.28,75.628
827.67,348.78,32.182,75.398
827.4,348.88,32.198,75.436
826.99,349,32.259,75.579
826.71,348.71,32.15,75.323
826.65,348.75,32.169,75.367
822.42,347.45,32.006,74.985
818.38,345.3,31.862,74.649
816.06,344.93,31.672,74.203
814.7,344.14,31.445,73.672
814.51,344.4,31.258,73.233
813.76,344.36,31.138,72.952
814.55,345.57,31.015,72.664
