572.5,338.5,24,60
572.88,337.82,23.989,59.972
572.78,337.59,24.051,60.127
572.67,337.95,24.04,60.1
572.66,338.49,23.844,59.61
572.74,339.05,23.448,58.621
573.15,339.37,23.223,58.058
572.16,340.37,23.211,58.028
561.44,341.08,23.394,58.485
555.47,340.57,23.596,58.989
549.78,340.89,23.596,58.991
544.02,340.37,23.831,59.577
542.28,339.51,24.232,60.581
541.79,339.36,24.238,60.595
541.5,339.76,24.053,60.133
541.4,339.91,24.015,60.037
541.24,339.74,24.166,60.416
540.93,339.56,24.302,60.754
541.04,340.18,24.326,60.815
540.89,340.2,24.285,60.712
540.25,340.73,24.079,60.197
539.39,340.96,24.07,60.175
538.06,340.72,24.372,60.929
534.29,340.13,24.828,62.069
530.38,340.72,24.522,61.305
525.79,340.59,24.421,61.052
520.39,340.84,24.592,61.479
506.84,340.9,24.629,61.572
465.39,340.91,24.489,61.223
442.79,339.9,24.46,61.15
431.24,343.68,24.347,60.869
422.14,340.74,24.589,61.473
416.59,338.77,24.35,60.876
417.35,334.69,24.669,61.672
419.47,332.34,24.697,61.742
420.75,331.49,25.082,62.705
421.49,332.9,24.978,62.445
422.37,336.35,25.014,62.536
422.2,342.04,24.998,62.494
422.55,342.39,25.058,62.644
422.72,342.52,25.223,63.057
423.15,342.48,25.364,63.41
422.86,342.73,25.292,63.231
422.98,342.79,25.329,63.323
423.15,343.14,25.336,63.341
423.26,343.62,25.444,63.61
424.48,344.08,25.358,63.395
424.79,344.13,25.409,63.523
425.79,343.98,25.439,63.598
426.15,344.45,25.675,64.187
425.96,344.49,25.687,64.219
426.2,344.32,25.733,64.333
426.37,344.61,25.808,64.52
426.08,344.11,26.066,65.166
426.85,343.78,26.209,65.523
426.41,343.07,26.148,65.37
427,343.36,26.232,65.581
427.32,343.21,26.249,65.623
427.49,343.34,26.323,65.808
428.97,343.83,26.272,65.68
430.68,344,26.484,66.211
431.84,344,26.583,66.457
432.59,344.51,26.772,66.931
432.64,344.03,26.734,66.835
433.44,343.93,26.723,66.806
433.64,344.06,26.75,66.876
433.45,343.7,26.785,66.963
433.43,343.49,26.863,67.157
433.61,343.76,26.882,67.204
433.51,343.66,27.114,67.784
433.18,343.93,27.145,67.863
433.54,344.31,27.12,67.801
433.41,344.09,27.103,67.759
433.33,344.36,27.069,67.673
433.28,344.65,27.054,67.635
433,344.54,27.313,68.284
433.2,344.7,27.452,68.629
433.01,344.54,27.648,69.12
432.77,343.85,27.777,69.444
433.04,344.34,27.919,69.799
432.44,343.83,27.901,69.753
432.67,344.03,27.949,69.872
432.66,343.94,27.647,69.117
432.85,343.89,27.686,69.214
432.91,343.98,27.745,69.363
432.92,344.07,27.81,69.524
433.47,344.65,28.102,70.256
433.38,344.88,28.114,70.285
433.51,345.14,28.234,70.585
433.26,344.9,28.186,70.466
433.94,345.08,28.184,70.46
434.11,345.2,28.18,70.451
434.32,345.14,28.189,70.473
434.45,344.87,28.28,70.7
434.07,344.55,28.288,70.72
434.23,344.36,28.291,70.727
434.31,344.87,28.302,70.755
434.31,344.93,28.35,70.876
434.64,345.24,28.681,71.701
434.73,345.69,29.037,72.594
435.17,345.47,29.264,73.16
435.32,345.19,29.431,73.576
435.07,344.93,29.605,74.013
435.63,345.27,29.98,74.949
435.63,344.68,30.051,75.126
435.65,344.35,30.122,75.305
436.23,344.47,30.188,75.47
436.71,344.65,30.18,75.451
436.85,344.65,30.123,75.307
437.07,344.53,30.074,75.185
437.21,344.55,30.005,75.012
437.68,344.89,30.154,75.386
438.01,345.18,30.228,75.569
438.64,345.68,30.415,76.037
438.94,345.69,30.492,76.23
439.42,346.24,30.548,76.37
439.52,345.77,30.52,76.3
440.23,346.03,30.61,76.525
440.16,345.53,30.722,76.804
440.99,345.34,30.45,76.124
441.21,345.43,30.49,76.224
441.57,345.71,30.531,76.327
441.51,345.64,30.485,76.213
441.98,346.48,30.384,75.961
442.18,346.44,30.251,75.628
442.13,346.83,30.254,75.636
442.48,347.21,30.313,75.783
442.6,347.47,30.317,75.792
442.97,347.44,30.357,75.892
443.14,347.18,30.457,76.144
443.58,347.34,30.698,76.745
443.56,346.95,30.965,77.412
443.58,346.62,30.909,77.273
443.81,346.72,31.16,77.901
443.81,346.27,31.464,78.66
444.08,346.09,31.536,78.84
444.22,346.18,31.661,79.153
444.86,346.4,31.551,78.877
445.07,346.97,31.447,78.619
445.66,347.44,31.457,78.641
446.23,347.86,31.558,78.896
446.64,348,31.585,78.962
446.66,347.85,31.78,79.449
446.53,347.87,31.68,79.199
446.88,347.84,31.675,79.187
446.88,347.83,31.692,79.229
447.05,347.9,31.676,79.19
447.09,347.72,31.695,79.237
447.1,347.75,31.684,79.209
447.16,347.82,31.707,79.266
446.81,347.92,31.918,79.794
446.91,347.89,32.011,80.028
446.66,348.16,32.006,80.016
446.49,348.52,31.923,79.808
446.37,348.52,32.097,80.244
446.06,348.78,32.159,80.397
446.08,348.62,32.309,80.771
445.87,348.45,32.364,80.909
445.63,347.96,32.397,80.992
444.81,345.8,32.211,80.527
444.44,342.29,31.936,79.841
441.92,336.81,31.772,79.43
435.97,332.5,31.711,79.277
427.21,330.16,31.654,79.135
415.85,327.99,31.581,78.951
413.91,326.6,31.581,78.952
413.38,325.48,31.574,78.935
413.42,323.47,31.564,78.911
413.54,320.53,31.502,78.755
413.5,318.13,31.51,78.775
413.57,316.59,31.517,78.793
413.83,316.37,31.533,78.831
414.13,317.22,31.55,78.875
414.37,318.72,31.497,78.743
414.46,320.39,31.521,78.801
414.49,321.39,31.592,78.979
415.02,321.89,31.583,78.956
415.26,321.89,31.649,79.122
415.38,321.68,31.685,79.212
415.47,321.36,31.707,79.268
415.08,321.43,31.756,79.389
415.07,321.26,31.827,79.567
415.13,321.42,31.775,79.436
415.05,321.6,31.67,79.175
415.31,322.09,31.473,78.682
415,323.02,31.34,78.351
415.03,323.41,31.38,78.451
414.89,324.47,31.34,78.35
414.9,325.88,31.305,78.263
414.95,327.53,31.268,78.17
414.97,329.11,31.166,77.914
414.62,329.72,31.262,78.154
414.88,330.06,31.23,78.075
414.53,329.86,31.234,78.085
413.31,329.28,31.192,77.979
410.64,327.67,31.088,77.72
407.42,326.86,31.176,77.941
404.18,325.16,31.361,78.402
402.3,323.54,31.361,78.404
399.22,321.66,31.41,78.524
397.39,320.91,31.556,78.891
396.94,320.31,31.768,79.421
396.29,319.86,31.861,79.654
396.2,319.63,31.952,79.88
392.85,320.76,31.906,79.766
391.69,321.1,31.874,79.685
390.98,321.68,31.849,79.624
390.69,322.05,31.867,79.668
390.69,322.1,31.867,79.667
390.71,322.11,31.827,79.567
390.52,322.24,31.705,79.263
389.88,322.19,31.438,78.595
388.45,321.74,31.444,78.611
386.68,321.2,31.567,78.917
383.77,319.93,31.545,78.863
381.95,319.59,31.543,78.858
379.73,319.03,31.546,78.866
378,318.9,31.574,78.936
377.05,318.89,31.571,78.927
375.81,319.14,31.533,78.833
375.11,319,31.543,78.857
374.55,319.23,31.505,78.762
370.89,320.96,31.529,78.822
370.63,321.18,31.479,78.696
366.34,322.75,31.48,78.7
364.94,322.92,31.499,78.747
364,323.23,31.425,78.562
363.08,323.53,31.448,78.621
362.48,323.76,31.464,78.659
361.84,324.25,31.374,78.436
361.31,324.5,31.338,78.346
360.55,324.39,31.184,77.96
359.52,323.8,31.132,77.829
359.1,323.02,31.095,77.737
358.71,322.25,30.951,77.378
358.15,321.23,30.893,77.232
358.11,321.22,30.846,77.115
357.99,320.97,30.867,77.167
357.76,320.9,30.822,77.055
357.43,321,30.77,76.925
357.83,320.84,30.8,77
357.77,320.95,30.866,77.166
357.49,320.91,30.807,77.018
357.97,321.22,30.76,76.899
358.15,320.73,30.871,77.178
357.93,320.89,30.718,76.794
358.28,320.99,30.751,76.878
358.37,321.02,30.756,76.89
358.41,321.08,30.763,76.907
358.36,321.09,30.73,76.826
358.31,321.07,30.663,76.657
358.1,320.72,30.639,76.598
358.11,320.69,30.623,76.557
358.21,320.71,30.703,76.758
358.33,320.6,30.766,76.915
358.15,320.58,30.782,76.956
358.18,320.47,30.774,76.936
358.1,320.37,30.81,77.025
358.13,320.81,30.799,76.997
358.15,321,30.737,76.841
357.93,321.05,30.652,76.629
357.6,321.02,30.524,76.31
358.06,321.6,30.501,76.253
358.07,321.47,30.449,76.122
357.94,321.32,30.388,75.969
358.01,321.17,30.365,75.912
357.7,320.56,30.327,75.818
357.66,320.21,30.329,75.823
357.84,319.7,30.253,75.633
357.74,318.85,30.362,75.904
357.97,318,30.414,76.036
357.92,318.23,30.372,75.929
357.62,318.48,30.368,75.919
357.71,318.94,30.294,75.734
357.61,320.28,30.177,75.442
358.08,320.93,30.1,75.25
354.32,321.77,30.134,75.334
354.5,321.94,30.088,75.219
354.34,321.93,30.072,75.181
354.49,322.29,30.009,75.022
354.67,322.83,29.993,74.981
354.91,323.27,29.936,74.839
355.49,323.99,29.872,74.679
355.7,324.19,29.878,74.695
356.06,324.55,29.857,74.643
356.36,324.3,29.784,74.461
356.43,324.13,29.743,74.358
356.74,324.18,29.737,74.343
357.16,324.6,29.608,74.019
358.17,325.56,29.486,73.715
358.38,325.71,29.569,73.922
359.67,326.19,29.619,74.047
360.03,326.52,29.775,74.438
359.92,325.79,29.725,74.312
360.06,325.79,29.691,74.228
360.97,325.81,29.695,74.238
361.99,325.83,29.704,74.261
362.45,326.06,29.633,74.082
363.7,327.18,29.633,74.083
364.8,327.36,29.63,74.076
366.78,326.78,29.669,74.174
367.55,326.28,29.627,74.068
368.91,326.33,29.626,74.066
369.79,326.02,29.709,74.273
370.56,325.55,29.75,74.376
371.8,324.96,29.604,74.01
373.18,325.57,29.641,74.101
374.01,325.76,29.716,74.29
374.53,325.76,29.726,74.316
375.19,325.4,29.777,74.442
376.59,325.26,29.817,74.543
378.12,325.78,29.834,74.585
379.34,326.16,29.804,74.51
380.24,326.21,29.833,74.582
381.19,326.68,29.85,74.626
383.45,327.15,29.867,74.668
385.26,327.21,29.933,74.832
387.6,327.3,29.75,74.376
389.25,327.3,29.631,74.077
391.36,328.16,29.648,74.12
395.79,328.35,29.709,74.272
396.8,328.23,29.794,74.485
397.59,327.35,29.924,74.809
399.32,327.23,30.055,75.138
399.73,325.72,30.071,75.178
401.04,324.7,30.099,75.247
402.83,324.63,30.072,75.18
403.05,324.44,30.157,75.394
404.18,324.51,30.15,75.376
405.36,325.29,30.137,75.344
406.74,326.01,30.152,75.38
407.82,327.1,30.164,75.409
408.29,327.5,30.183,75.458
409.36,328.16,30.281,75.703
409.99,328.44,30.375,75.938
411.27,328.61,30.461,76.153
412.83,328.78,30.465,76.162
413.72,328.45,30.554,76.384
414.89,328.57,30.525,76.312
415.82,328.84,30.537,76.342
417.17,328.65,30.455,76.136
417.98,328.24,30.341,75.852
419.13,328.19,30.235,75.587
420.43,328.17,30.162,75.405
421.01,327.67,30.042,75.106
422.26,327.48,29.991,74.978
423.57,326.85,30.129,75.323
424.52,326.23,30.163,75.407
425.65,325.98,30.143,75.357
426.62,325.77,30.167,75.417
429.54,325.96,30.14,75.351
430.54,326.14,30.184,75.459
431.54,326.56,30.161,75.403
432.86,326.27,30.058,75.145
433.72,326.05,30.08,75.201
434.42,326.23,30.08,75.201
435.33,325.39,30.039,75.098
435.31,325,30.039,75.097
435.7,323.99,30.086,75.215
435.61,323.19,30.144,75.359
436.79,322.09,30.265,75.663
436.94,321.57,30.36,75.901
436.85,320.74,30.408,76.019
437.53,320.87,30.468,76.171
436.7,321.14,30.43,76.075
437.28,322.39,30.281,75.702
437.6,322.61,30.423,76.059
437.43,323.33,30.237,75.592
437.81,323.69,30.201,75.502
437.72,323.84,30.104,75.26
437.73,323.8,29.978,74.945
437.78,324.12,29.901,74.753
438.03,324.41,30.052,75.129
437.87,324.69,30.023,75.056
437.98,324.95,30.081,75.202
437.98,325.17,30.075,75.187
438.27,324.98,30.134,75.336
438.53,325.08,30.148,75.371
438.44,324.97,30.13,75.326
438.12,324.56,30.111,75.278
438.32,324.67,30.083,75.208
438.06,324.32,30.046,75.116
438.01,324.73,29.997,74.993
438.04,325.21,29.998,74.995
438.07,325.49,30.01,75.025
438.56,325.3,30.029,75.073
438.96,324.97,29.953,74.882
439.68,325.1,29.912,74.781
439.84,325,29.962,74.905
440.45,324.36,30.012,75.031
440.35,323.93,30.116,75.29
441.38,324.61,30.06,75.149
441.88,324.78,30.002,75.004
442.99,325.06,29.957,74.892
444.24,325.16,29.872,74.681
446.01,325.12,29.824,74.559
447.1,324.73,29.825,74.562
448.14,323.78,29.798,74.495
449.48,322.55,29.823,74.558
450.89,321.92,29.643,74.106
452.84,321.45,29.696,74.239
454.42,320.42,29.757,74.392
455.35,319.19,29.67,74.176
456.62,319.16,29.558,73.895
457.37,318.17,29.457,73.643
458.86,317.81,29.402,73.505
460.23,317.85,29.38,73.45
460.98,317.76,29.313,73.284
462.46,317.97,29.352,73.38
462.93,317.89,29.347,73.367
464.03,318.3,29.3,73.251
465.17,318.76,29.23,73.074
465.65,319.15,29.114,72.786
465.86,319.54,29.013,72.532
466.34,320.44,29.036,72.589
466.65,320.47,29.016,72.539
467.08,320.91,28.995,72.488
467.15,321.04,28.954,72.384
467.24,320.97,28.954,72.385
468,320.73,28.883,72.209
467.57,319.21,28.888,72.22
467.94,317.52,29.054,72.636
468.29,316.38,29.119,72.797
468.56,314.22,29.175,72.937
468.65,312.84,29.08,72.699
470.64,311.53,29.271,73.177
471.46,311.61,29.309,73.273
470.57,311.37,29.428,73.569
470.06,310.81,29.519,73.796
470.98,310.44,29.506,73.766
471.34,310.62,29.395,73.487
472.17,310.91,29.271,73.178
473.04,311.69,29.252,73.129
474.1,312.04,29.231,73.078
475.22,312.66,29.217,73.042
481.96,315.82,29.653,74.131
487.91,314.01,30.038,75.095
491.75,309.81,30.168,75.42
494.1,307.99,30.238,75.595
494.9,308.29,30.276,75.69
496.31,306.82,30.128,75.321
498.02,306.63,30.066,75.165
498.44,307.03,29.885,74.712
499.65,309.08,29.809,74.523
500.16,310.05,29.72,74.301
499.31,311.31,29.594,73.985
499.88,312.7,29.609,74.021
499.45,313.1,29.519,73.797
499.74,313.41,29.397,73.493
500.11,313.48,29.411,73.527
500.27,313.71,29.395,73.487
500.13,313.76,29.486,73.715
499.51,313.03,29.479,73.697
499.9,312.51,29.638,74.095
500.01,312.12,29.635,74.088
498.76,311.26,29.603,74.009
499.98,309.51,29.648,74.121
499.72,307.45,29.61,74.025
500,307.59,29.722,74.306
499.78,306.85,29.689,74.223
500.26,306.35,29.618,74.045
501.21,307.69,29.629,74.072
501.07,309.1,29.615,74.038
500.75,310.53,29.668,74.169
500.59,310.46,29.358,73.396
501.26,310.76,29.287,73.219
501.47,309.72,29.187,72.966
501.7,308.35,29.14,72.851
502.34,308.07,29.099,72.748
501.55,308.26,29.007,72.519
502.53,308.21,29.004,72.509
502.54,307.32,28.924,72.311
502.09,306.51,28.732,71.831
502.08,307.27,28.698,71.744
501.86,306.67,28.608,71.52
501.49,306.07,28.498,71.244
501.25,306.68,28.337,70.843
500.96,307.23,28.284,70.71
500.8,308.17,28.194,70.485
501.29,308.82,28.19,70.474
501.11,309.9,28.152,70.38
501.72,310.72,28.279,70.698
501.29,310.71,28.51,71.275
501.13,311.18,28.57,71.424
501,311.67,28.573,71.432
501.25,311.14,28.652,71.631
501.1,311.2,28.677,71.693
501.44,310.76,28.738,71.844
501.72,310.21,28.632,71.581
500.96,309.44,28.516,71.291
500.55,309.04,28.438,71.096
500.28,309.97,28.288,70.721
499.47,308.72,28.25,70.626
499.79,308.44,28.249,70.622
499.61,308.47,28.218,70.546
499.4,308.67,28.212,70.529
499.12,308.78,28.205,70.512
498.96,308.89,28.245,70.614
498.65,309.52,28.198,70.496
498.92,310.26,28.168,70.42
498.9,310.74,28.123,70.308
498.77,311.07,28.169,70.422
498.51,310.96,28.282,70.706
497.82,310.52,28.226,70.566
497.8,310.06,28.29,70.725
497.67,309.59,28.349,70.874
497.64,309.47,28.354,70.885
497.78,308.74,28.466,71.164
497.62,308.41,28.567,71.419
496.89,307.91,28.392,70.98
497.35,308.57,28.396,70.99
497.35,308.88,28.35,70.876
497.13,309.58,28.221,70.554
496.74,310.14,28.111,70.277
497.2,311.47,28.085,70.213
497.07,311.83,28.145,70.362
496.82,311.96,28.198,70.494
496.79,312.15,28.247,70.618
496.23,311.88,28.144,70.36
496.81,312.62,28.191,70.478
496.74,312.91,28.15,70.374
496.63,312.99,28.218,70.545
496.19,312.77,28.147,70.368
496.74,313.09,28.227,70.568
496.11,312.74,28.178,70.444
496.69,313.17,28.25,70.624
496.24,312.67,28.236,70.59
496.17,312.08,28.198,70.495
496.76,312.07,28.259,70.646
496.38,311.03,28.102,70.256
496.85,311.02,28.124,70.31
496.63,310.7,28.14,70.349
496.62,311.16,28.09,70.226
496.69,311.81,28.091,70.229
496.67,312.73,28.087,70.219
496.65,313.51,27.969,69.921
496.07,314.01,27.84,69.599
496.45,314.93,27.847,69.619
496.4,315.09,27.927,69.818
495.94,314.61,27.964,69.911
495.91,314.54,28.074,70.186
496.07,314.86,28.155,70.388
495.98,314.8,28.121,70.301
495.78,314.4,28.106,70.266
495.78,313.79,28.14,70.349
495.71,313.3,28.201,70.502
495.3,312.56,28.184,70.46
495.82,312.38,28.218,70.545
495.32,311.69,28.184,70.46
495.89,312.12,28.147,70.367
495.97,312.16,28.122,70.305
495.92,312.07,28.144,70.36
495.93,311.98,28.129,70.323
495.84,311.63,28.155,70.387
495.85,311.36,28.185,70.463
495.86,310.96,28.309,70.773
495.28,310.36,28.288,70.721
495.29,310.13,28.424,71.06
495.8,310.27,28.498,71.245
495.59,310.02,28.501,71.252
495.48,310.05,28.527,71.319
495.25,309.91,28.397,70.991
495.65,310.07,28.46,71.151
495.63,309.67,28.435,71.087
495.53,309.24,28.342,70.855
494.95,308.05,28.258,70.644
494.92,307.04,28.215,70.538
494.94,306.17,28.145,70.362
495.43,305.97,28.083,70.206
495.42,305.25,28.175,70.438
495.4,305,28.086,70.214
495.41,304.76,28.019,70.048
494.92,303.83,28.103,70.257
495.23,303.71,28.073,70.183
495.39,303.24,28.19,70.474
495.31,302.94,28.239,70.597
494.85,301.64,28.137,70.342
495.17,301,28.158,70.395
495.16,300.89,28.101,70.252
495.36,300.49,28.07,70.174
495.04,299.85,28.212,70.53
495.23,297.77,28.137,70.343
497.2,296.45,27.988,69.969
500.82,293.1,27.812,69.531
505.56,291.72,27.792,69.479
510.57,291.21,27.978,69.945
511.91,291.82,27.82,69.551
513.11,293.64,27.657,69.142
513.27,293.8,27.71,69.274
514.74,293.11,27.773,69.432
516.28,292.95,27.765,69.412
517.03,291.8,27.787,69.467
517.64,290.57,27.797,69.492
517.7,289.49,27.918,69.796
517.66,287.58,27.991,69.979
517.67,286.88,28.054,70.135
518.74,286.96,27.931,69.828
518.63,286.26,27.931,69.828
519.18,286.07,27.852,69.631
520.47,285.89,27.727,69.317
523.59,284.11,27.732,69.331
530.62,282.57,27.691,69.227
536.93,281.8,27.774,69.436
540.97,281.87,27.781,69.453
541.74,281.69,27.768,69.419
542.19,281.9,27.91,69.774
541.92,281.35,27.874,69.685
542.36,281.94,27.873,69.681
542,282.71,27.768,69.419
539.81,284.67,27.754,69.384
537.75,286.2,27.66,69.149
534.89,288.46,27.445,68.613
531.37,291.21,27.285,68.211
526.94,293.35,27.32,68.3
521.05,293.76,27.355,68.387
516.74,293.37,27.36,68.4
515.38,291.62,27.226,68.066
515.5,290.35,27.206,68.016
514.85,287.27,27.318,68.295
516.09,282.66,27.49,68.725
522.27,277.36,27.632,69.08
528.72,272.45,27.531,68.828
534.55,268.85,27.496,68.741
535.44,267.79,27.437,68.593
535.94,266.84,27.32,68.3
536.9,266.93,27.319,68.298
540.7,267.92,27.135,67.837
549.6,268.12,27.15,67.876
555.93,269.27,27.122,67.804
556.92,269.52,27.201,68.002
557.88,270.61,27.408,68.52
556.64,270.54,27.366,68.415
550.49,270.52,27.311,68.279
540.89,270.94,27.33,68.326
528.92,271.41,27.259,68.148
519.86,273.36,27.361,68.402
516.57,274.17,27.219,68.048
516.73,276.23,26.974,67.436
519.64,278.71,26.865,67.164
526.3,279.92,26.808,67.02
537.25,279.8,26.929,67.322
548.52,278.63,27.174,67.934
554.78,276.52,27.278,68.194
555.14,275.61,27.335,68.337
550.86,273.98,27.276,68.189
541.24,276.02,27.225,68.063
527.42,281.12,27.237,68.092
514.69,287.09,27.288,68.221
508.04,293.19,27.236,68.089
508.25,297.4,27.06,67.65
511.78,299.79,27.095,67.738
524.35,299.69,27.19,67.975
541.68,296.76,27.211,68.028
555.76,292.57,27.09,67.726
563.94,287.8,27.11,67.775
568.01,284.66,26.953,67.384
569.19,283.24,27.039,67.597
567.6,280.33,27.175,67.938
563.53,279.93,27.315,68.287
555.03,282.26,27.42,68.55
544.87,286.35,27.413,68.532
533.93,292.55,27.351,68.378
525.44,299.36,27.18,67.949
523.75,304.96,27.176,67.941
523.8,308.8,26.996,67.491
524.78,311.97,27.001,67.503
530.86,313.54,26.941,67.351
542.41,312.3,27.063,67.656
552.81,307.63,26.99,67.476
560.67,303.13,27.016,67.541
563.42,299.96,26.934,67.336
564.55,298.53,27.062,67.654
564.52,296.03,27.092,67.731
565.67,294.98,27.097,67.743
567.77,294.53,27.126,67.815
571.51,295.51,27.051,67.627
576.25,297.43,26.981,67.453
583.14,301.45,27.173,67.931
586.07,304.02,27.174,67.936
589.18,307.67,27.206,68.014
592.3,309.86,27.157,67.893
595.82,310.15,27.154,67.885
602.02,309.28,27.223,68.057
607.04,308.43,27.083,67.709
610.74,307.58,27.069,67.674
615.33,307.65,27.093,67.733
620.12,308.61,27.124,67.809
625.88,310.25,27.036,67.591
629.66,310.9,27.148,67.871
633.16,311.54,27.164,67.911
635.94,311.63,27.326,68.314
637.43,311.43,27.4,68.501
638.02,311.37,27.531,68.829
638.53,311.65,27.688,69.221
637.91,310.85,27.825,69.563
638.25,310.73,27.944,69.86
637.41,309.58,27.997,69.992
635.12,308.44,28.057,70.141
633.33,307.88,27.938,69.846
631.16,306.97,27.947,69.867
629.04,306.06,27.903,69.756
626.51,306.24,27.808,69.521
622.51,306.69,27.705,69.262
619.15,306.8,27.582,68.955
616.46,307.74,27.594,68.986
613.4,308.03,27.543,68.857
611.15,308.54,27.652,69.131
607.72,308.86,27.561,68.903
605.88,309.9,27.579,68.948
602.8,310.32,27.667,69.167
600.69,310.24,27.742,69.354
599.38,310.76,27.803,69.508
597.47,312.77,27.862,69.656
594.04,314.52,27.833,69.582
590.55,316.42,27.791,69.478
587.77,317.37,27.764,69.411
586.17,317.54,27.769,69.423
584.32,316.98,27.86,69.649
581.81,315.48,27.911,69.778
578.27,314.15,27.781,69.453
575.95,313.9,27.847,69.618
573.88,313.35,27.81,69.524
570.42,312.83,27.822,69.556
568.67,312.86,27.886,69.716
567.26,312.92,27.838,69.595
566.02,313.36,27.806,69.515
565.25,314.4,27.759,69.397
564.42,315.98,27.6,68.999
563.96,317.4,27.743,69.358
563.29,318.43,27.741,69.351
562.47,319.44,27.746,69.364
561.56,320.24,27.687,69.218
560.28,319.92,27.774,69.435
559.54,318.95,27.88,69.7
558.16,317.03,27.926,69.815
556.18,314.45,27.789,69.473
554.99,312.92,27.857,69.642
553.45,310.66,27.947,69.866
552.2,309.53,27.795,69.488
552.41,309.73,27.863,69.657
552.4,309.79,27.888,69.719
552.35,310.31,27.842,69.606
552.38,310.95,27.811,69.527
552.25,311.46,27.788,69.469
552.22,311.63,27.792,69.48
552.13,311.45,27.819,69.549
551.89,311.25,27.856,69.64
551.5,310.76,27.915,69.787
550.76,309.71,27.916,69.79
550.74,309,27.88,69.701
551.14,308.71,27.986,69.966
550.6,307.69,27.99,69.976
550.67,307.24,27.912,69.78
550.62,307.17,27.856,69.64
551.09,307.67,27.891,69.728
551.18,308.54,27.783,69.457
551.21,309.53,27.791,69.477
551.34,310.85,27.677,69.193
550.87,311.21,27.75,69.376
551.21,312.19,27.793,69.482
551.44,312.94,27.779,69.447
551.39,313.08,27.729,69.321
550.69,312.27,27.642,69.106
550.73,311.37,27.511,68.778
551.11,310.63,27.562,68.905
551.14,309.73,27.662,69.155
550.64,308.42,27.708,69.27
550.61,307.77,27.772,69.429
551.05,307.78,27.841,69.603
550.8,307.52,27.969,69.923
550.36,307.11,27.879,69.697
550.77,307.68,27.871,69.677
550.43,307.89,27.788,69.471
550.07,308.01,27.754,69.386
549.59,307.86,27.697,69.242
548.89,307.24,27.77,69.424
548.91,307.27,27.751,69.378
548.29,306.74,27.741,69.353
547.79,306.19,27.755,69.386
547.2,306.2,27.717,69.293
546.21,305.97,27.625,69.061
545.7,305.99,27.647,69.117
545.37,306.16,27.543,68.858
545.62,307.01,27.509,68.773
545.11,307.28,27.626,69.066
543.8,307.03,27.589,68.972
543.8,307.9,27.661,69.153
543.09,307.66,27.559,68.898
543.48,308.36,27.568,68.921
543.55,308.48,27.563,68.908
543.38,308.68,27.571,68.928
543.45,308.68,27.568,68.92
543.39,308.67,27.58,68.951
543.33,308.47,27.573,68.933
543.09,307.67,27.652,69.131
542.6,306.55,27.523,68.807
543.06,306.31,27.599,68.999
542.69,305.35,27.717,69.292
542.35,304.59,27.665,69.162
542.39,304.31,27.666,69.165
542.3,304.15,27.709,69.271
542.26,304.05,27.718,69.295
542.25,304.22,27.605,69.012
542.34,304.73,27.548,68.87
542.64,305.15,27.642,69.106
542.18,304.79,27.637,69.091
542.1,304.29,27.705,69.263
542.03,302.76,27.771,69.428
542.6,301.08,27.754,69.385
542.35,298.7,27.72,69.299
542,296.62,27.677,69.192
542.01,295.56,27.681,69.202
541.9,294.96,27.739,69.348
541.97,294.47,27.625,69.061
542.29,293.86,27.546,68.864
543.09,293.52,27.673,69.181
543.59,292.45,27.57,68.925
545.4,291.58,27.655,69.137
546.31,289.78,27.484,68.709
546.94,288.37,27.526,68.815
547.03,286.32,27.627,69.066
546.86,282.86,27.498,68.746
547.47,280.86,27.442,68.605
547.91,277.31,27.627,69.067
548.43,275.04,27.652,69.131
549.23,274.87,27.613,69.032
550.73,276.69,27.453,68.632
554.03,279.88,27.553,68.882
561.08,283.82,27.724,69.309
566.63,284.97,27.873,69.682
572.09,285.81,27.807,69.518
577.08,285.06,28.025,70.063
583.58,282.45,27.995,69.987
591.56,278.73,27.833,69.582
599.05,277.28,27.891,69.728
603.81,276.83,27.949,69.874
609.45,277.48,27.999,69.997
615.23,279.71,27.924,69.809
622.99,284.53,27.648,69.12
628.09,287.99,27.505,68.763
631.8,290.86,27.431,68.577
634.02,292.27,27.384,68.46
636.68,293.54,27.531,68.829
640.32,294.04,27.506,68.765
644.19,293.12,27.623,69.057
649,290.6,27.537,68.843
657.73,287.68,27.774,69.435
666.45,284.06,27.926,69.815
674.92,280.74,27.784,69.459
680.96,278.91,27.888,69.72
683.6,277.72,27.936,69.84
686.01,275.75,27.828,69.571
691.04,273.84,27.793,69.483
697.94,269.67,27.923,69.807
702.84,267.06,27.846,69.615
708.47,266.36,27.843,69.606
714.87,266.67,27.746,69.366
724.22,268.19,27.918,69.794
731.9,270.91,28.056,70.14
738.03,274.81,28.198,70.496
743.03,278.28,28.336,70.84
748.68,282.04,28.318,70.796
754.84,283.2,28.424,71.059
760.3,283.65,28.442,71.104
764.23,283.06,28.533,71.332
766.23,281.1,28.364,70.911
768.28,280.18,28.316,70.791
768.68,278.61,28.269,70.672
769.63,278.06,28.249,70.622
771.33,277.53,28.432,71.08
773.15,277.74,28.625,71.563
771.84,276.17,28.504,71.261
770.35,275.29,28.504,71.259
769.14,274.81,28.412,71.029
768.32,276.34,28.444,71.11
765.25,280.12,28.297,70.743
762.49,283.83,28.22,70.55
761.92,288.66,27.884,69.711
762.07,295.01,27.876,69.689
761.89,300.72,27.945,69.862
760.78,305.67,27.983,69.958
760,309.71,27.951,69.876
758.75,312.05,27.901,69.752
758.11,313,27.972,69.93
756.11,312.87,28.111,70.279
754.46,313.19,28.057,70.143
752.11,313.34,28.105,70.263
750.41,314.45,28.231,70.577
747.9,314.67,28.294,70.734
746.87,314.62,28.346,70.865
745.22,313.94,28.423,71.058
739.05,313.89,28.263,70.659
729.87,313.7,28.124,70.309
719.29,315.38,28.139,70.349
708.35,316.35,28.302,70.755
697.59,317.18,28.241,70.602
690.39,318.75,28.295,70.739
688.89,321.42,28.185,70.461
689.12,325.28,28.18,70.449
689.92,329.1,28.106,70.266
691.37,332.92,28.021,70.053
692.78,336.99,27.86,69.65
694.06,341.13,27.816,69.54
695.15,343.34,27.81,69.526
697.51,343.54,27.967,69.917
702.88,339.89,28.186,70.464
708.79,336.33,28.241,70.603
712.86,332.49,28.264,70.66
719.46,327.97,28.263,70.659
725.28,323.87,28.212,70.529
726.4,320.13,28.26,70.649
726.1,318.37,28.391,70.978
726.67,317.02,28.43,71.074
726.8,316.15,28.506,71.264
726.45,316.98,28.458,71.146
726.79,319.27,28.419,71.048
726.78,320.98,28.396,70.991
727.07,321.61,28.395,70.987
726.87,321.01,28.448,71.119
726.88,319.34,28.447,71.117
727.28,315.78,28.532,71.331
729.02,310.29,28.533,71.333
733.4,303.99,28.475,71.188
739.62,296.6,28.485,71.213
744.19,291.37,28.394,70.986
744.1,290,28.254,70.635
742.83,288.99,28.214,70.534
740.48,291.21,28.034,70.085
735.88,297.11,28.096,70.239
734.46,303.73,27.953,69.883
734.22,310.18,27.885,69.712
734.98,316.85,27.881,69.702
738.96,323.18,27.986,69.966
748.98,326.67,28.031,70.078
757.75,327.04,28.124,70.31
761.28,326.25,28.284,70.711
761.15,324.33,28.283,70.708
760.64,322.54,28.359,70.898
760.29,321.95,28.415,71.038
758.9,321.02,28.512,71.281
757.08,320.95,28.438,71.096
755.44,323.25,28.401,71.003
754.38,325.13,28.379,70.947
753.99,327.28,28.355,70.886
753.61,329.21,28.392,70.979
753.21,329.93,28.447,71.118
752.15,328.84,28.484,71.209
751.23,326.5,28.576,71.439
747.12,322.26,28.58,71.45
739.22,319.3,28.272,70.68
729.83,317.25,28.225,70.563
720.6,315.77,28.054,70.135
711.81,315.12,28.104,70.261
704.84,313.53,28.168,70.42
701.03,312.43,28.121,70.301
697.68,311.89,28.118,70.296
693.55,312.96,28.071,70.178
687.28,315.52,28.095,70.237
681.46,318.27,27.997,69.992
678.29,319.42,27.918,69.796
676.6,319.75,28.022,70.055
674.56,319.87,28.065,70.162
671.64,320.31,28.143,70.358
666.23,319.45,28.233,70.583
662.62,318.47,28.235,70.589
660.8,318.14,28.172,70.429
659.45,318.21,28.239,70.596
657.12,317.88,28.093,70.232
656.37,318.32,28.026,70.065
655.41,317.4,28.017,70.043
654.84,315.98,28.14,70.349
655.08,314.79,28.288,70.721
653.98,312.88,28.325,70.814
653.2,312.44,28.407,71.017
651.73,312.22,28.475,71.189
650.08,312.09,28.49,71.226
648.82,311.62,28.498,71.246
648.51,311.85,28.599,71.497
647.92,312.17,28.401,71.003
647.87,313.68,28.255,70.639
647.09,314.67,28.133,70.333
647.45,316.25,28.143,70.356
646.85,317.53,28.159,70.396
646.93,318.42,28.182,70.455
646.6,319.59,28.259,70.647
645.69,319.42,28.339,70.847
645.46,319.59,28.348,70.871
645.61,319.54,28.459,71.149
645.69,319.66,28.542,71.356
645.25,318.71,28.696,71.74
645.68,318.76,28.793,71.983
645.18,317.91,28.87,72.176
645.12,317.18,28.79,71.975
645.37,317.29,28.801,72.002
645.38,317.34,28.815,72.037
645.21,317.11,28.877,72.193
645.38,317.6,28.941,72.352
645.49,318.29,28.973,72.433
645.84,319.14,29.018,72.546
645.94,319.47,28.895,72.237
645.44,318.95,28.984,72.461
646.06,319.45,29.057,72.643
645.99,319.56,28.913,72.284
645.64,319.03,28.9,72.249
645.66,319.02,28.907,72.267
645.67,319,28.941,72.353
645.8,319.24,28.961,72.402
645.83,319.14,28.953,72.382
645.82,318.98,29.023,72.557
645.9,318.57,29.082,72.705
645.72,317.44,29.198,72.995
645.47,316.6,29.24,73.1
645.87,316.68,29.209,73.022
645.29,316.55,29.146,72.864
644.18,316.71,29.101,72.753
642.24,317.85,28.926,72.315
640.4,317.88,28.905,72.263
639.68,317.91,28.933,72.332
639.51,318.01,28.894,72.236
639.11,317.58,28.773,71.933
639.51,317.78,28.644,71.61
639.11,317.08,28.805,72.012
639,317.02,28.852,72.13
638.75,316.54,28.897,72.243
638.72,315.88,28.975,72.438
639.03,315.91,28.943,72.357
638.86,314.07,29.023,72.557
639.03,313.51,29.165,72.912
638.22,312.38,29.155,72.888
637.36,311.93,29.189,72.974
636.21,312.06,29.153,72.882
635.27,312.64,28.887,72.217
634.52,313.08,28.87,72.175
634.23,313.69,28.829,72.072
634.05,314.18,28.915,72.287
634.05,314.83,28.862,72.156
633.9,315.39,28.836,72.09
633.78,315.75,28.804,72.009
633.83,316.68,28.713,71.783
634.18,317.27,28.76,71.899
634.01,317.96,28.79,71.975
633.84,318.04,28.845,72.112
633.67,317.81,28.887,72.217
633.75,317.9,28.916,72.291
633.63,317.86,28.893,72.232
633.64,317.69,28.963,72.408
634,318.01,29.1,72.75
633.63,318.47,28.969,72.422
633.95,319.71,28.969,72.423
634.32,320.76,29.045,72.613
634.56,321.65,28.992,72.481
634.5,322,29.071,72.678
634.5,322.01,29.11,72.776
633.87,320.76,29.072,72.68
633.67,318.9,28.993,72.482
633.07,316.58,29.013,72.532
632.06,314.04,28.965,72.413
631.02,312.05,28.796,71.991
629.07,310.18,28.78,71.95
628.14,309.84,28.544,71.36
627.04,308.97,28.484,71.21
627.3,309.36,28.459,71.148
627.65,309.37,28.446,71.114
629.12,309.4,28.666,71.664
632.1,311.17,28.633,71.582
633.29,312.48,28.628,71.569
634.13,313.21,28.559,71.397
634.55,313.79,28.624,71.56
635.51,314.02,28.706,71.765
637.81,314.57,28.695,71.738
638.95,314.46,28.705,71.761
639.18,313.41,28.911,72.278
638.68,310.84,28.969,72.423
639.14,308.8,29.09,72.726
638.58,304.22,28.979,72.447
638.13,301.78,28.924,72.309
636.38,297.89,29.171,72.928
635.12,296.03,29.284,73.21
634.49,294.87,29.196,72.989
632.88,292.94,29.177,72.944
632.92,292.41,29.142,72.856
633.01,292.37,29.079,72.698
633.28,292.68,29.07,72.676
633.68,293.36,29.009,72.522
633.92,293.72,28.993,72.483
634.17,293.73,29.064,72.659
634.28,293.34,29.104,72.76
634.2,292.6,29.117,72.792
633.76,291.93,29.144,72.86
633.37,291.9,29.207,73.017
632.23,292.64,29.177,72.942
631.87,293.74,29.19,72.975
631.72,294.69,29.257,73.143
632.13,296.2,29.127,72.817
631.84,296.99,29.116,72.791
631.78,297.68,29.13,72.824
631.39,298.03,29.145,72.862
631.14,298.5,29.079,72.697
631.18,298.75,29.083,72.708
631.04,298.57,29.082,72.705
630.91,298.14,29.176,72.941
630.69,297.62,29.155,72.888
630.68,297.24,29.154,72.885
630.74,296.9,29.261,73.153
630.92,296.62,29.371,73.428
630.78,295.99,29.446,73.615
630.68,295.16,29.426,73.565
630.49,294.37,29.536,73.84
630.76,293.74,29.626,74.066
630.8,293.35,29.762,74.404
630.41,293.09,29.615,74.037
630.89,293.7,29.7,74.251
630.81,293.71,29.599,73.998
631.07,294.2,29.619,74.047
631.25,294.43,29.571,73.929
631.57,294.78,29.519,73.796
631.61,295.33,29.456,73.64
631.86,296.09,29.426,73.565
633.4,297.06,29.311,73.279
636.04,298.59,29.414,73.536
637.25,299.14,29.498,73.746
637.47,299.44,29.447,73.619
637.65,299.41,29.418,73.544
637.77,299,29.484,73.71
637.46,297.78,29.674,74.184
637.69,297.45,29.725,74.312
637.31,297.27,29.718,74.295
637.41,297.68,29.653,74.133
637.16,298.89,29.658,74.146
636.87,300.89,29.611,74.027
637.02,303.14,29.571,73.928
637.17,304.5,29.627,74.069
637.15,305.52,29.565,73.914
636.94,305.64,29.618,74.045
636.95,305.22,29.721,74.303
636.52,303.13,29.676,74.19
636.32,300.97,29.688,74.219
635.88,299.09,29.649,74.123
635.92,297.74,29.686,74.215
635.29,296.01,29.644,74.111
635.12,295.3,29.724,74.31
634.06,294.14,29.63,74.074
634.08,294.18,29.631,74.077
633.71,293.87,29.719,74.296
633.22,293.48,29.686,74.215
632.95,293.38,29.711,74.277
632.54,293.19,29.69,74.226
631.7,292.72,29.771,74.427
629.59,292.33,29.823,74.557
626.55,292.31,29.931,74.826
623.08,292.17,29.893,74.733
621.33,291.44,29.92,74.8
619.89,290.69,29.935,74.838
618.56,290.14,29.951,74.878
617.36,289.91,29.782,74.455
616.36,289.6,29.685,74.211
615.64,289.86,29.654,74.135
615.09,290.12,29.633,74.084
614.15,290.07,29.661,74.153
612.74,289.98,29.617,74.043
611.77,290.43,29.609,74.021
611.14,290.64,29.755,74.387
610.68,291.05,29.589,73.972
610.86,293.5,29.612,74.03
610.66,295.58,29.579,73.947
610.79,298.29,29.59,73.975
611,300.26,29.585,73.963
610.91,301.7,29.62,74.05
610.73,302.34,29.746,74.365
610.41,302.4,29.69,74.224
610.58,302.64,29.63,74.076
610.77,302.48,29.601,74.003
610.63,302.05,29.569,73.922
610,301.03,29.608,74.019
609.5,301.06,29.671,74.177
608.7,300.68,29.498,73.745
608.38,300.14,29.449,73.621
608.19,299.75,29.455,73.637
608.38,299.94,29.11,72.774
608.5,300.07,29.035,72.587
608.69,300.12,29.001,72.502
608.64,300.16,28.959,72.398
608.27,299.91,28.961,72.403
607.91,300.04,28.984,72.459
607.78,299.82,29.432,73.579
607.11,299.28,29.449,73.623
606.46,298.93,29.593,73.983
606.41,298.75,29.507,73.768
605.21,297.71,29.289,73.223
605.99,297.19,29.078,72.694
605.37,296.37,29.151,72.877
605.18,296.01,29.044,72.611
605.12,296.9,29.113,72.782
604.87,298.25,29.152,72.88
604.79,299.68,29.207,73.018
605.27,301.49,29.287,73.218
606.58,302.91,29.247,73.118
606.62,302.92,29.471,73.678
607.19,302.77,29.66,74.149
607.66,302.66,29.684,74.211
607.85,302.21,29.518,73.794
608.02,301.45,29.369,73.423
608.05,301.08,29.184,72.961
608.06,300.56,29.067,72.668
608.27,300.53,29.166,72.914
607.93,300.2,28.877,72.193
607.82,299.96,28.865,72.162
607.64,299.35,28.841,72.103
607.27,298.66,28.993,72.483
607.35,298.01,29.227,73.069
606.63,296.65,29.248,73.119
606.13,295.09,29.193,72.982
605.85,294.26,28.789,71.973
605.8,293.61,28.647,71.619
605.27,292.71,28.72,71.8
605.5,292.08,28.841,72.102
605.07,291.54,28.81,72.026
605.11,291.54,28.797,71.993
605.17,292.56,28.84,72.101
605.04,293.4,28.74,71.849
605.61,295.33,29.038,72.596
606.08,296.76,29.261,73.152
606.38,297.77,29.192,72.981
606.36,297.96,29.343,73.357
607.18,298.74,29.561,73.902
607.12,298.72,29.611,74.028
607.23,298.71,29.618,74.045
607.12,298.44,29.423,73.558
606.79,298.25,28.841,72.102
606.65,298.5,28.566,71.414
606.48,299.01,28.381,70.951
606.67,299.76,28.513,71.283
605.92,299.66,28.736,71.84
606.05,300.09,29.16,72.901
605.6,300.35,29.101,72.752
605.37,301.14,29.246,73.115
605.29,301.38,29.389,73.472
605.2,301.74,29.274,73.185
605.23,301.91,29.46,73.651
604.67,301.96,29.107,72.768
604.74,302.32,28.888,72.221
604.25,301.64,28.922,72.305
604.29,301.58,28.899,72.248
604.25,301.53,28.865,72.162
604.39,301.39,28.928,72.319
604.73,301.68,28.939,72.348
605.03,301.87,28.982,72.454
605.51,302.02,29.288,73.22
606.16,302.26,29.43,73.575
606.22,302.02,29.469,73.673
606.62,302.13,29.505,73.761
607,302.12,29.443,73.609
607.05,301.9,29.409,73.522
607.8,302.12,29.026,72.566
608.45,302.09,28.861,72.153
608.33,301.81,28.542,71.355
608.5,302.07,28.307,70.768
608.41,301.86,28.53,71.326
608.39,302.1,28.556,71.389
608.29,302.33,28.602,71.506
608.01,302.25,29.02,72.549
608.17,302.63,29.246,73.115
607.8,302.06,29.393,73.482
607.25,301.79,29.546,73.864
607.17,301.84,29.302,73.255
606.82,301.87,29.367,73.418
606.3,301.34,29.334,73.334
606.38,301.08,29.369,73.422
606.02,300.78,29.214,73.034
605.54,300.14,29.162,72.905
605.52,300.12,29.166,72.916
605.48,300.13,29.215,73.038
605.32,300.06,29.246,73.116
605.71,300.47,29.22,73.049
605.75,300.79,29.478,73.696
605.79,301.51,29.489,73.722
606.08,302.4,29.58,73.951
606.46,303.32,29.721,74.301
606.09,304.23,29.549,73.873
605.92,304.45,29.659,74.147
605.84,304.91,29.488,73.72
605.76,305.25,28.996,72.489
606.11,305.62,29.035,72.588
605.86,305.65,28.994,72.486
605.65,305.55,29.001,72.503
605.15,305.41,29.154,72.884
604.02,305,29.272,73.18
603.93,305.88,29.239,73.098
603.24,305.78,29.283,73.206
603.05,305.63,29.597,73.992
602.43,305.6,29.699,74.247
601.84,305.13,29.436,73.59
601.44,304.66,29.033,72.582
601.76,305.01,28.903,72.258
600.65,304.61,28.805,72.012
599.78,305.3,28.846,72.116
599.02,305.45,28.741,71.852
599.28,306.06,28.901,72.253
598.95,305.91,28.888,72.219
598.98,306.04,28.887,72.216
599.27,306.18,28.898,72.246
599.58,306.14,28.909,72.274
599.82,305.78,28.937,72.343
600.19,305.17,29.218,73.046
600.04,304.73,29.107,72.766
600.21,304.75,28.98,72.451
600.39,304.76,28.924,72.31
599.96,304.65,28.473,71.183
600.06,304.68,28.69,71.725
599.73,304.61,28.798,71.995
599.18,304.58,28.736,71.839
598.84,305.21,28.675,71.687
598.01,305.43,28.865,72.163
597.16,305.4,28.829,72.073
597,305.91,28.655,71.638
597.23,306.01,28.728,71.82
597.31,305.29,28.663,71.657
597.68,304.37,28.535,71.338
596.9,302.99,28.262,70.655
596.62,302.67,27.98,69.949
596.21,302.44,27.771,69.426
596.14,302.62,27.702,69.255
595.3,302.12,27.586,68.966
595.66,302.53,27.469,68.672
595.13,302.45,27.374,68.434
594.49,302.38,27.227,68.067
594.71,303.09,27.134,67.835
593.83,302.5,27.117,67.791
593.64,302.55,27.079,67.698
593.48,302.76,27.034,67.585
593.3,303.1,27.081,67.703
593.2,303.79,26.956,67.39
593.35,304.64,26.961,67.401
593.08,305.2,26.913,67.283
592.94,305.73,26.774,66.934
592.56,305.93,26.601,66.504
593.11,307.08,26.43,66.074
593.19,307.55,26.182,65.454
592.62,308.03,25.931,64.828
592.48,308.59,26.053,65.133
592.57,309.09,26.031,65.078
592.67,309.14,26.095,65.238
592.33,308.89,26.126,65.315
592.37,308.44,26.297,65.742
592.35,308.62,26.169,65.423
591.98,308.52,26.044,65.109
592.42,308.89,25.929,64.823
592.11,308.42,25.892,64.73
591.76,308.2,25.879,64.697
591.67,308.39,25.818,64.544
591.79,308.64,25.697,64.242
591.68,309.01,25.53,63.826
591.4,308.82,25.505,63.762
591.32,308.71,25.448,63.621
591.65,308.07,25.425,63.562
591.61,307.01,25.508,63.771
591.46,306.03,25.576,63.94
590.99,305.21,25.586,63.965
590.71,304.77,25.606,64.014
590.34,304.42,25.572,63.929
590.26,304.61,25.403,63.509
589.85,304.61,25.329,63.323
589.31,304.33,25.256,63.139
588.63,304.01,25.102,62.755
587.83,302.89,24.939,62.348
586.98,301.16,24.831,62.079
586.02,298.33,24.678,61.695
585.36,295.2,24.791,61.978
584.78,291.04,24.858,62.146
584.22,288.32,24.985,62.463
583.29,285.7,24.913,62.283
582.05,283.2,24.681,61.701
581.29,281.73,24.484,61.21
580.97,280.22,24.286,60.715
580.84,279.3,24.193,60.483
580.16,278.93,24.096,60.239
579.24,278.74,23.978,59.946
578.52,278.42,23.959,59.898
577.95,277.53,24.038,60.096
577.92,276.61,24.001,60.004
577.93,274.94,23.946,59.865
577.44,272.42,23.805,59.512
577.62,271.32,23.884,59.709
576.99,270.69,23.813,59.532
576.75,270.77,23.805,59.514
576.46,271.06,23.742,59.355
575.94,271.03,23.68,59.2
575.14,271.38,23.534,58.835
575.19,272.22,23.448,58.621
574.64,272.28,23.176,57.94
573.96,271.51,23.114,57.786
573.18,269.48,23.151,57.878
572.43,267.6,23.174,57.935
571.71,265.67,23.162,57.906
571.23,263.76,23.189,57.974
571.24,262.65,23.227,58.067
570.74,261.22,23.118,57.794
570.08,259.97,22.999,57.496
569.97,259.75,22.789,56.973
569.71,258.73,22.579,56.446
570.36,258.58,22.491,56.227
569.75,257.45,22.406,56.016
569.79,256.68,22.431,56.076
569.59,255.95,22.411,56.028
569.58,255.36,22.491,56.226
569.15,254.79,22.559,56.397
569.35,254.96,22.614,56.534
569.51,255.51,22.651,56.628
569.49,255.9,22.711,56.777
569.17,256.47,22.763,56.908
568.89,256.89,22.706,56.765
568.93,258.38,22.561,56.402
568.54,258.96,22.404,56.009
568.22,259.17,22.199,55.498
567.42,258.91,22.091,55.228
566.98,258.79,21.954,54.886
566.51,257.57,22.003,55.007
566.18,257.11,21.946,54.865
565.25,255.61,22.17,55.425
564.43,254.33,22.197,55.492
563.86,253.21,22.329,55.823
563.94,253.06,22.364,55.909
563.51,252.68,22.357,55.893
563.27,252.69,22.085,55.214
562.93,252.62,21.873,54.683
562.35,252.31,21.752,54.38
562.59,252.67,21.685,54.213
562.19,252.63,21.643,54.107
561.72,252.27,21.607,54.018
561.11,251.61,21.581,53.953
560.89,251.12,21.53,53.825
560.95,250.12,21.562,53.905
560.66,249.27,21.555,53.887
560.5,248.89,21.548,53.87
560.5,248.72,21.557,53.893
560.67,248.98,21.523,53.806
560.28,249.54,21.491,53.728
560.75,250.89,21.354,53.385
560.5,251.45,21.312,53.279
559.94,251.93,21.216,53.04
560.23,252.68,21.078,52.695
562.38,252.85,21.128,52.821
566.86,250.94,21.124,52.811
571.01,249.01,21.102,52.755
575.48,247.01,21.232,53.079
580.21,245.08,21.186,52.966
588.46,244.82,21.045,52.612
596.11,243.17,21.094,52.735
604.28,243.02,21.018,52.546
609.22,242.55,20.923,52.306
612.83,242.36,20.784,51.961
614.02,242.97,20.724,51.81
613.66,243.07,20.708,51.769
613.14,244.01,20.717,51.793
610.81,244.61,20.658,51.644
605.78,246.67,20.579,51.448
600.44,248.94,20.605,51.513
593.05,250.6,20.605,51.512
586.78,251.17,20.716,51.79
582.49,250.82,20.834,52.085
579.22,249.98,20.906,52.265
573.02,248.95,20.767,51.918
567.18,248.63,20.689,51.721
560,248.19,20.534,51.334
553.99,248.89,20.504,51.26
549.75,248.93,20.372,50.93
543.07,247.6,20.288,50.72
540.66,247.19,20.171,50.428
539.22,245.62,20.035,50.088
538.02,244,19.936,49.84
538.15,242.4,19.878,49.695
541.17,238.12,19.792,49.48
547.34,233.81,19.765,49.412
556.66,230.03,19.82,49.55
564,228.35,19.826,49.565
569.06,228.73,19.746,49.366
570.57,228.74,19.758,49.394
571.04,230.9,19.718,49.294
570.44,234.57,19.631,49.077
566.7,238.51,19.547,48.867
559.43,241.55,19.489,48.724
550.34,242.08,19.537,48.842
544.06,241.96,19.595,48.987
542.49,240.51,19.55,48.876
541.71,240.05,19.552,48.881
544.27,238.26,19.555,48.888
549.39,234.61,19.589,48.972
562.5,231.09,19.629,49.072
574.25,228.45,19.645,49.113
580.93,227.83,19.541,48.851
582.8,227.45,19.556,48.891
583.9,227.44,19.497,48.741
584.53,227.9,19.49,48.726
584.37,228.8,19.526,48.815
580.68,230.94,19.532,48.83
573.08,234.45,19.468,48.67
564.4,239.08,19.366,48.416
548.56,245.38,19.386,48.464
531.4,248.91,19.383,48.458
522.43,251.9,19.292,48.23
519.05,252.1,19.305,48.262
520,250.41,19.373,48.433
526.23,246.16,19.345,48.363
536.95,241.87,19.402,48.504
549.49,237.66,19.375,48.437
562.21,236.2,19.365,48.413
572.35,237.3,19.358,48.395
587.21,239.09,19.367,48.418
590.13,240.85,19.265,48.162
591.67,241.88,19.235,48.087
591.95,243.3,19.204,48.01
586.65,246.39,19.137,47.843
570.62,251.31,19.128,47.82
557.69,256.85,19.011,47.526
549.13,260.23,18.929,47.322
548.33,260.82,18.968,47.421
553.51,257.85,18.86,47.15
571.31,253.89,18.832,47.081
583.8,249.65,18.798,46.996
596.94,245.48,18.752,46.881
605.76,241.82,18.71,46.775
606.43,241.22,18.787,46.967
601.87,241.77,18.831,47.078
588.51,245.51,18.861,47.154
573.39,249.26,18.86,47.15
560.08,251.28,18.936,47.341
555.41,252.6,18.859,47.148
560.84,252,18.862,47.154
578.64,249.02,18.802,47.005
603.87,245.43,18.692,46.73
625.03,241.57,18.629,46.573
634.56,238.28,18.618,46.546
633.84,237.87,18.546,46.365
627.9,237.74,18.381,45.953
616.03,238.94,18.28,45.701
597.62,241.81,18.195,45.488
577.23,245.73,18.021,45.052
587.13,249.94,17.809,44.522
589.71,250.38,17.731,44.328
571.27,247.73,17.854,44.636
585.22,242.03,17.876,44.69
576.71,231.64,17.985,44.962
606.37,229.87,17.831,44.577
616.6,228.61,17.701,44.252
617.33,228.45,17.601,44.001
613.19,228.56,17.57,43.925
604.97,230.98,17.525,43.813
620.73,233.49,17.55,43.874
602.13,238.09,17.541,43.852
598.15,240.85,17.636,44.09
603.14,241.77,17.663,44.157
611.22,237.45,17.669,44.173
596.86,239.64,17.666,44.165
610.43,238.13,17.696,44.239
611.69,238.55,17.619,44.048
612.63,239.11,17.516,43.789
606.12,238.97,17.556,43.89
598.29,235.5,17.395,43.487
593.85,234.97,17.328,43.319
591.49,240.81,17.394,43.486
579.46,242.89,17.486,43.715
564.22,242.15,17.431,43.577
571.04,240.07,17.43,43.574
566.56,240.42,17.318,43.294
559.64,238.38,17.35,43.375
550.67,229.75,17.377,43.442
549.2,225.03,17.263,43.156
546.03,224.26,17.177,42.941
547.69,223.35,17.311,43.277
527.81,223.93,17.512,43.779
540.24,223.08,17.463,43.657
543.6,245.81,17.601,44.002
527.72,249.76,17.603,44.008
527.3,251.68,17.62,44.051
539.77,248.59,17.557,43.891
541.71,242.76,17.468,43.671
550.1,240.63,17.425,43.561
571.93,227.16,17.47,43.675
578.74,226.81,17.544,43.86
571.71,218.75,17.633,44.082
577.82,222.1,17.685,44.212
585.98,231.97,17.762,44.406
601.45,232.02,17.714,44.286
599.57,232.27,17.675,44.187
605.34,239.89,17.586,43.965
585.76,245.1,17.478,43.694
591.62,250.07,17.4,43.499
592.8,250.15,17.322,43.304
585.81,245.78,17.327,43.318
580.58,237.71,17.322,43.305
