439,222,25,43
439.01,221.56,24.922,42.865
439.34,221.27,24.884,42.8
440.64,220.98,25.146,43.251
444.64,223.43,25.574,43.987
449.86,212.72,26.046,44.8
452.61,215.89,25.935,44.608
456.66,219.86,25.908,44.561
459.49,222.64,26.374,45.363
462.87,214.67,26.374,45.364
464.93,216.41,26.695,45.915
466.56,217.73,27.009,46.455
468.29,219.53,27.205,46.793
472.05,219.6,27.523,47.34
473.03,220.38,27.818,47.847
475.04,220.92,27.691,47.628
477.37,220.7,28.034,48.218
479.82,219.97,28.482,48.989
483.03,218.45,28.757,49.462
485.19,217.59,29.147,50.132
488.27,216.23,29.599,50.911
491.51,215.52,29.604,50.919
495.09,214.68,29.875,51.385
499.22,213.15,30.061,51.705
504.68,208.81,30.295,52.107
507.35,208.03,30.273,52.07
509.74,205.94,30.261,52.048
512,203.47,30.585,52.605
514.55,201.76,30.404,52.295
516.27,200.04,30.172,51.897
517.32,197.45,30.124,51.813
523.31,193.98,30.486,52.436
526.22,200.14,30.73,52.855
527.33,199.76,30.762,52.911
528.61,199.48,30.617,52.661
526.51,194.15,30.434,52.347
526.46,194.98,30.255,52.038
527.97,199.47,30.138,51.837
535.16,200.68,29.904,51.434
536.81,203.21,29.834,51.315
539.81,207.72,29.769,51.203
540.6,214.02,29.681,51.052
545.12,213.15,29.854,51.349
548.16,214.55,30.164,51.882
551.13,218.86,30.228,51.993
554.41,218.35,30.413,52.31
554.91,220.95,30.548,52.542
563.7,210.9,30.347,52.197
566.05,212.32,30.391,52.272
568.62,212.33,30.38,52.254
570.81,211.62,30.329,52.165
571.78,210.54,30.346,52.195
572.5,206.48,30.469,52.407
570.82,208.1,30.369,52.234
570.63,208.25,30.537,52.523
570.4,208.12,30.509,52.475
570.64,208.66,30.514,52.484
569.51,210.27,30.563,52.568
569.39,211.52,30.816,53.004
570.98,212.58,31.048,53.403
578.5,212.58,31.171,53.613
579.07,212.75,31.322,53.874
579.82,211.86,31.267,53.779
579.99,213,31.137,53.556
579.71,213.26,31.24,53.733
577.73,214.33,31.379,53.973
578.18,214.67,31.482,54.148
578.79,213.96,31.544,54.256
579.18,213.88,31.514,54.204
579.03,214.22,31.601,54.353
577.03,214.22,31.526,54.225
883.24,326.89,31.529,54.229
862.69,340.21,31.219,53.697
873.53,338.17,30.898,53.145
879.7,334.55,30.872,53.099
891.25,356.22,30.794,52.966
893.17,356.87,30.956,53.244
895.76,356.11,31.176,53.623
905.95,339.2,31.297,53.831
906.95,340.49,31.176,53.622
885.05,339.36,31.509,54.195
893.25,356.67,31.517,54.21
894.39,356.44,31.612,54.373
895.56,356.21,31.635,54.411
895.83,356.36,31.837,54.759
895.56,355.54,31.95,54.954
894.21,353.87,32.107,55.224
897.7,352.88,32.254,55.476
906.61,354.32,32.366,55.67
917.48,353.01,32.387,55.706
901.75,330.09,32.479,55.864
902.38,330.6,32.481,55.867
901.22,330.16,32.692,56.231
901.15,329.21,32.717,56.273
901.4,329.32,32.652,56.162
901.07,329.6,32.457,55.827
901.2,329.63,32.375,55.685
900.12,329.44,32.309,55.571
901.19,329.84,32.14,55.281
901.32,330.31,32.212,55.405
900.95,330.29,32.146,55.291
901.64,330.35,32.163,55.32
901.37,330.02,32.175,55.341
901.52,330.22,32.252,55.474
900.98,329.78,32.354,55.648
901.21,329.88,32.462,55.835
901.41,330.08,32.586,56.048
901.04,330.16,32.533,55.957
900.83,330.27,32.58,56.037
900.94,329.94,32.484,55.872
901.3,330.18,32.484,55.872
901.18,330.28,32.348,55.639
900.8,329.53,32.329,55.606
900.58,329.54,32.335,55.616
900.72,329.53,32.352,55.646
901.1,329.4,32.329,55.605
900.86,329.55,32.341,55.626
900.87,329.6,32.401,55.729
901.14,329.6,32.422,55.766
901.35,329.64,32.545,55.978
900.99,329.47,32.667,56.188
900.75,329.07,32.687,56.222
489.15,219.37,32.707,56.256
487.83,229.35,32.619,56.105
518.39,223.68,32.504,55.908
519.64,223.96,32.639,56.14
521.31,223.73,32.903,56.594
526.42,224.38,32.795,56.407
529.89,225.62,32.655,56.167
536.18,226.07,32.579,56.036
533.78,231.37,32.842,56.489
566.35,231.43,33.274,57.232
554.17,234.97,33.3,57.276
552.45,201.44,33.256,57.201
540.26,200.7,33.041,56.831
520.05,221.01,32.944,56.664
508.98,221.17,32.671,56.194
496.89,220.6,32.85,56.502
489.54,220.44,33.01,56.778
483.14,218.76,33.031,56.814
466.13,220.52,33.442,57.52
454.98,232.53,33.334,57.335
446.61,231.66,33.417,57.477
443.39,217.49,33.326,57.32
438.26,215.98,33.138,56.997
430.92,214.33,33.052,56.85
404,254.62,33.005,56.769
409.43,249.77,33.185,57.079
418.92,222.25,33.193,57.093
418.17,215.92,33.019,56.793
415.59,214.35,32.862,56.523
415.83,213.86,32.681,56.212
415.28,213.15,32.559,56.001
415.99,213,32.265,55.495
416.04,212.66,32.049,55.125
417.43,212.6,32.03,55.091
417.58,212.71,32.156,55.308
418.33,212.01,32.354,55.649
418.88,210.44,32.366,55.67
419.77,209.27,32.345,55.634
420.29,207.83,32.162,55.319
422.82,207.98,31.993,55.029
422.95,207.8,31.914,54.892
421.13,208.43,31.923,54.908
419.05,210.05,32.076,55.171
418.61,210.84,32.173,55.338
415.1,210.58,32.1,55.212
414.45,209.15,31.863,54.805
413.34,210.19,31.78,54.662
413.05,212.16,32.143,55.286
411.7,215.78,32.79,56.398
410.64,218.12,33.427,57.495
410.66,216.36,33.674,57.92
410.65,217.09,34.266,58.938
411.68,217.22,34.737,59.747
411.65,215.14,35.154,60.465
409.45,218.28,35.65,61.317
408.87,221.33,35.577,61.192
407.31,221.98,35.485,61.035
411.66,208.49,35.462,60.995
411.95,208.06,35.176,60.502
412.35,206.84,35.015,60.226
413.77,205.32,34.856,59.953
413.46,203.63,34.776,59.814
413.21,202.25,34.481,59.307
410.45,202.91,34.408,59.181
410.08,202.06,34.443,59.242
408.9,203.56,34.665,59.623
408.99,203.13,34.99,60.182
408.84,201.27,35.088,60.352
408.69,196.77,34.821,59.892
407.62,194.96,34.401,59.171
403.19,196.77,33.985,58.455
400.32,197.48,33.879,58.272
397.45,196.38,33.379,57.413
393.44,195.74,33.043,56.835
388.68,195.95,33.248,57.187
387.04,197.48,33.451,57.535
383.92,198.71,33.84,58.204
381.67,199.59,34.52,59.375
377.38,198.37,35.335,60.776
376.39,198.44,35.726,61.449
374.77,199.55,36.293,62.424
371.6,199.92,36.9,63.468
367.64,199.8,37.334,64.215
363.02,200.07,37.653,64.764
359.27,200.79,38.23,65.756
357.64,200.32,38.468,66.166
357.15,199.66,38.384,66.021
357.63,198.41,38.102,65.535
358.61,197,37.942,65.261
359.25,196.4,37.868,65.133
323.08,242.95,37.847,65.097
361.39,194.32,37.498,64.497
360.72,195.77,37.541,64.57
359.86,196.45,37.784,64.989
360.91,195.78,38.058,65.46
363.98,194.41,37.718,64.876
364.97,194.22,37.364,64.265
366.7,195.2,37.122,63.851
363.74,191.68,36.683,63.094
363.94,192.95,36.492,62.767
365.17,195.33,36.286,62.412
367.35,199.48,36.137,62.155
370.1,202.66,36.451,62.696
374.52,205.39,36.639,63.019
382.44,208.52,36.617,62.982
387.48,210.01,36.487,62.758
394.13,211.99,36.303,62.441
400.99,213.22,35.93,61.799
407.73,213.84,35.702,61.407
423.33,214.03,35.255,60.639
431.72,213.24,34.855,59.95
439.81,212.51,34.566,59.454
447.41,212.76,34.63,59.563
456.52,214.48,34.534,59.398
474.39,212.03,34.514,59.363
471.35,215.77,34.507,59.351
486.81,244.38,34.283,58.967
490.18,244.81,33.87,58.257
488.13,244.34,33.581,57.759
510.05,211.24,33.676,57.923
505.6,209.33,33.502,57.623
501.19,211.02,33.273,57.229
498.49,212.64,32.938,56.654
496.25,211.3,32.635,56.132
490.86,211.25,32.464,55.838
489.5,212.2,32.31,55.574
486.79,211.75,32.264,55.494
484.13,211.61,32.232,55.438
482.41,211.47,32.381,55.695
478.41,210.45,32.166,55.325
477.25,209.98,32.126,55.256
476.67,209.41,31.959,54.969
474.86,208.4,31.741,54.595
471.87,210.74,31.542,54.252
468.14,212.12,31.259,53.765
498.54,314.41,30.913,53.171
496.89,318.24,30.858,53.076
497.36,318.62,30.468,52.405
465.72,345.57,30.158,51.871
465.52,368.61,30.019,51.633
471.2,369.26,30.032,51.656
473.31,370.1,29.909,51.443
474.15,370.85,29.897,51.423
474.9,371.13,30.008,51.614
475.96,371.92,30.201,51.946
476.05,371.59,30.35,52.202
477.14,371.96,30.495,52.451
476.98,371.43,30.627,52.679
477.84,371.16,30.764,52.915
478.18,371.67,30.926,53.193
477.62,371.13,31.19,53.647
478.26,370.86,31.327,53.882
478.97,370.75,31.321,53.872
479.12,370.74,31.355,53.931
479.77,370.61,31.268,53.78
478.65,370.88,31.373,53.962
398.82,259.54,31.353,53.927
424.71,228.69,31.3,53.835
424.67,228.13,31.243,53.738
425.01,227.83,31.071,53.441
426.13,228.27,30.965,53.261
427.08,227.62,30.775,52.932
401.19,259.17,30.614,52.657
429.94,227.68,30.494,52.45
434.59,226.25,30.541,52.531
437.13,226.24,30.615,52.657
439.86,226.84,30.658,52.732
443.27,227.29,30.647,52.712
445.39,226.43,30.833,53.033
455.39,225.23,30.783,52.946
460.19,223.26,30.758,52.903
463.3,223.11,30.825,53.019
466.91,222.77,30.784,52.948
469.59,223.37,30.553,52.551
474.12,223.6,30.516,52.488
476.89,223.15,30.394,52.277
479.57,223.97,30.186,51.92
480.87,224.1,29.948,51.511
481.14,225.69,29.859,51.358
483.39,224.75,29.923,51.468
483.34,225.38,30.027,51.647
484.37,225.24,30.216,51.971
487.61,222.59,30.443,52.362
489.26,222.38,30.612,52.652
486.73,221.71,30.674,52.759
482.32,223.82,30.742,52.876
479.57,224.2,30.752,52.893
477.9,224.37,30.829,53.026
476.43,225.18,30.865,53.087
474.97,225.41,30.842,53.048
474.2,226.34,30.848,53.058
473.88,227.36,30.732,52.859
474.36,228.2,30.666,52.745
474.6,228.54,30.612,52.653
474.53,228.22,30.518,52.492
474.33,228.09,30.315,52.141
473.73,228.4,30.067,51.716
472.56,227.47,29.93,51.479
470.92,226.69,29.813,51.278
468.72,225.48,29.738,51.149
467.67,225.12,29.538,50.806
465.91,224.87,29.51,50.757
464.77,225.2,29.207,50.235
463.81,225.33,29.054,49.973
462.91,225.7,29.142,50.125
461.76,224.49,29.283,50.367
461.23,225.44,29.526,50.785
461.18,224.18,29.606,50.922
461.64,224.22,29.588,50.892
460.26,224.56,29.71,51.101
458.7,225.67,29.717,51.113
455.91,227.6,29.812,51.276
454,227.47,30.027,51.646
453.86,227.13,30.066,51.714
452.99,227.06,30.2,51.944
452.42,226.85,30.365,52.228
453.02,227.17,30.39,52.271
452.29,227.73,30.548,52.543
452.38,226.97,30.649,52.717
453.01,226.28,30.655,52.726
453.46,225.41,30.661,52.738
453.83,224.66,30.742,52.877
453.3,223.13,30.784,52.949
453.13,222.2,30.825,53.019
454.05,220.32,30.868,53.093
454.56,218.44,30.777,52.936
455.43,217.98,30.641,52.702
456.68,216.43,30.508,52.475
458.3,214.67,30.449,52.372
461.21,213.47,30.42,52.322
461.98,213.38,30.346,52.195
462.53,213.06,30.156,51.868
462.7,212.38,29.951,51.515
462.93,211.78,29.833,51.313
462.4,211.33,29.675,51.04
461.32,211.78,29.522,50.779
458.17,212.81,29.337,50.46
454.55,214.43,29.35,50.482
450.04,215.83,29.402,50.571
444.83,217.27,29.645,50.989
437.37,217.07,29.98,51.565
430.55,217.79,30.202,51.947
426.68,216.3,30.338,52.182
423.45,214.96,30.622,52.669
421.88,212.84,30.941,53.218
419.22,211.8,31.108,53.506
419.65,210.97,31.517,54.208
418.23,212.01,31.703,54.53
418.07,212.35,31.633,54.409
417.35,214.86,31.651,54.44
420.84,217.47,31.643,54.426
417.61,223.52,31.698,54.521
420.82,224.04,31.709,54.539
423.73,224.19,31.975,54.996
427.13,222.73,32.05,55.126
434.22,218.59,31.642,54.424
437.29,217.06,31.197,53.658
440.72,215.17,30.859,53.078
444.89,212.38,30.628,52.681
441.63,218.3,30.58,52.598
446.19,214.37,30.535,52.519
447.14,214.14,30.654,52.725
447.48,213.29,30.732,52.858
448.06,213.48,30.79,52.959
454.79,210.61,30.6,52.632
447.39,216.09,30.358,52.216
444.06,219.73,30.286,52.091
439.8,221.93,30.193,51.933
436.33,224.09,30.131,51.826
433.2,225.19,30.133,51.829
429.34,226.29,30.166,51.885
428.17,227.05,30.134,51.83
426.89,227.62,30.096,51.766
426.72,228.18,30.029,51.65
426.68,228.2,29.971,51.55
427.99,227.46,29.753,51.175
429.83,226.92,29.619,50.945
431.67,226.93,29.6,50.911
433.33,226.58,29.662,51.018
435.4,226.85,29.687,51.061
438.85,227.7,29.775,51.212
440.11,228.02,29.755,51.179
441.98,227.86,29.845,51.333
444,227.18,29.839,51.324
445.95,227,29.879,51.392
448.84,227.05,29.872,51.381
449.79,227.25,29.859,51.358
450.9,227.3,29.814,51.279
575.61,259.89,29.784,51.228
556.68,241.27,29.544,50.817
557.65,242.2,29.22,50.258
557.19,244.32,29.194,50.214
556.73,243.71,29.126,50.096
557.06,243.95,29.112,50.072
556.88,244.87,28.947,49.789
557.79,242.64,28.808,49.55
556.67,243.85,28.911,49.727
555.22,246.67,28.929,49.758
555.9,243.2,28.811,49.554
556.56,241.68,28.486,48.996
450.68,254.36,28.646,49.271
474.62,226.08,28.563,49.129
475.19,226.43,28.488,48.999
474.88,226.88,28.53,49.071
473.74,227.41,28.429,48.898
471.43,228.12,28.299,48.674
469.55,228.27,28.243,48.578
467.28,228.51,28.138,48.398
463.39,228.34,28.231,48.557
460.16,229.13,28.099,48.33
453.06,229.56,28.06,48.263
448.87,230.32,28.058,48.259
444.87,229.93,28.14,48.401
440.95,230.9,28.105,48.34
438,231.2,28.089,48.312
432.74,232.4,27.924,48.028
430.99,232.77,27.957,48.087
428.93,233.42,28.034,48.219
427.3,233.07,28.087,48.31
425.93,233.17,28.057,48.257
424.03,233.1,28.115,48.359
422.69,233.15,28.138,48.397
421.14,233.77,28.097,48.326
420.47,234.11,28.038,48.225
420.28,234.09,28.061,48.266
420.38,234.38,28.112,48.353
421.01,234.81,28.067,48.275
422.21,235.06,27.99,48.143
424.05,235.5,27.868,47.932
425.54,234.99,27.972,48.112
427.83,234.76,28.002,48.164
428.87,235.13,27.812,47.836
429.18,234.4,27.717,47.673
429.75,233.39,27.663,47.58
430.82,231.79,27.565,47.412
431.77,228.96,27.269,46.903
432.54,227.59,27.196,46.778
433.28,226.65,27.276,46.914
435.17,226.03,27.259,46.886
438.06,225.11,27.175,46.741
444.36,223.05,27.091,46.596
448.29,221.55,27.019,46.473
454.1,221.41,26.8,46.095
459.92,221.01,26.745,46.002
466.26,219.82,26.701,45.925
464.76,193.92,26.731,45.978
455.3,177.61,26.749,46.008
455.67,174.24,27.263,46.893
458.1,173.15,27.739,47.711
458.93,168.96,27.942,48.06
462.21,167.54,28.148,48.414
463.41,167.63,28.407,48.86
465.31,167.96,28.772,49.487
466.55,168.56,28.96,49.812
467.73,168.33,29.04,49.949
468.87,168.98,29.102,50.055
469.55,169.43,29.058,49.98
470.24,169.71,29.243,50.298
470.05,168.79,29.221,50.26
470.53,168.45,29.263,50.333
470.83,167.14,29.326,50.441
470.81,165.58,29.203,50.23
470.62,164.8,29.053,49.971
470.63,163.45,28.591,49.176
470.21,162.07,28.146,48.412
463.88,171.15,28.59,49.175
459.04,179.35,28.744,49.439
458.2,174.27,28.986,49.857
455.53,176.03,29.301,50.397
455.69,173.85,29.32,50.43
457.51,169.46,29.601,50.913
458.07,168.96,29.923,51.468
460.39,169.61,30.248,52.027
464.61,169.07,30.401,52.29
468.64,170.04,30.497,52.454
473.9,171,30.818,53.007
479.66,170.56,30.947,53.228
474.38,219.99,31.029,53.369
488.45,218.24,31.196,53.658
503.19,213.5,31.332,53.891
521.41,208.66,31.276,53.795
509.38,159.23,31.565,54.292
513.25,157.17,31.682,54.493
519.78,156.45,31.791,54.681
524.7,156.1,31.718,54.556
530.25,154.74,31.649,54.436
532.96,154.28,31.688,54.504
535.07,154.33,31.528,54.229
536.64,154.58,31.441,54.079
537.93,154.99,31.363,53.944
537.4,156.41,31.188,53.644
535.96,157.56,31.373,53.961
535.63,157.83,31.393,53.996
532.35,157.62,31.276,53.795
537.35,157.39,30.831,53.029
515.9,166.88,30.768,52.921
507.33,167.14,30.91,53.165
500.32,165.67,31.202,53.667
494.01,164.48,31.405,54.017
490.08,163.76,31.647,54.433
484.25,161.99,32.171,55.334
480.77,163.07,32.806,56.426
477.93,164.18,33.258,57.203
475.19,165.75,33.82,58.17
473.41,167.46,33.988,58.459
472.46,172.58,34.222,58.862
473.01,175.9,34.378,59.129
472.9,180,34.813,59.878
459.73,222.36,34.752,59.773
474.69,223.44,34.55,59.427
498.08,225.81,34.162,58.759
508.59,187.43,33.997,58.475
498.94,164.44,33.87,58.256
501.19,162.14,33.858,58.236
503.66,160.12,33.816,58.163
504.44,158.9,33.76,58.068
506.15,158.31,33.574,57.747
508.84,158,33.588,57.772
508.92,157.76,33.547,57.701
508.03,158.4,33.323,57.316
506.56,158.59,33.11,56.949
499.88,161.25,33.03,56.812
498.89,162.11,32.743,56.318
494.4,163.79,32.598,56.068
489.39,164.61,32.404,55.735
482.27,172.64,32.543,55.974
473.24,169.22,32.846,56.495
470.42,167.12,33.177,57.065
468.88,165.8,33.424,57.489
467.03,164.58,33.562,57.726
466.77,164.7,33.65,57.878
466.57,163.79,33.868,58.253
470.52,163.91,34.08,58.618
472.53,164.57,34.03,58.532
476.51,165.43,34.178,58.785
480.71,167.47,34.247,58.904
484.75,170.97,34.203,58.83
488.5,172.87,34.096,58.646
490.87,173.78,34.049,58.564
492.88,174.95,34.202,58.827
495.3,176.42,34.362,59.103
496.79,177.16,34.502,59.343
497.83,176.72,34.63,59.564
498.5,177.38,34.636,59.575
474.51,206.26,34.481,59.307
475.81,205.32,34.253,58.915
478.13,205.32,34.048,58.563
478.74,205.16,33.87,58.256
479.44,206.05,33.681,57.931
479.16,206.47,33.505,57.629
479.52,208.57,33.259,57.206
476.11,214.84,33.113,56.955
473.28,218.06,33.199,57.102
470.79,222.92,32.968,56.704
467.86,226.75,32.923,56.628
465.51,230.96,33.022,56.797
461.72,234.42,33.124,56.973
461.21,234.84,33.235,57.164
460.55,234.12,33.19,57.087
460.05,231.1,33.164,57.042
459.9,227.42,33.175,57.062
459.39,219.5,33.209,57.119
459.28,215.33,33.238,57.17
459.26,211.78,33.061,56.865
458.52,208.12,32.99,56.742
457.85,205.89,32.825,56.458
456.88,204.81,32.677,56.205
455.28,205.11,32.494,55.89
453.97,209.64,32.166,55.325
452.73,215.26,32.044,55.115
449.25,225.82,32.229,55.433
444.79,250.8,32.366,55.669
440.89,269.94,32.385,55.702
437.98,286.07,32.462,55.834
437.54,298.1,32.343,55.63
438.12,302.35,32.378,55.69
443.94,290.64,32.699,56.243
450.25,265.15,33.011,56.779
453.23,252.98,32.919,56.62
498.06,299.1,33.001,56.761
493.13,288.15,33.273,57.229
489.99,270.33,33.525,57.662
489.99,264.78,33.564,57.729
482.76,277.75,33.279,57.24
476.9,295.36,33.048,56.842
470.58,309.32,32.918,56.619
458.81,340.77,32.947,56.668
452.06,365.69,33.111,56.951
451.8,378.24,33.056,56.856
450.42,393.57,32.967,56.703
450.5,397.88,32.79,56.398
451.09,399.67,32.742,56.316
454.79,381.65,32.711,56.262
455.05,381.27,32.469,55.847
455.89,382.13,32.635,56.133
455.33,381.63,32.677,56.205
446.63,373.52,32.867,56.531
441.85,370.54,32.889,56.568
448.25,379.6,33.071,56.882
443.4,379.37,33.383,57.419
441.73,383.03,33.521,57.656
444.26,384.95,33.566,57.733
447.87,385.21,33.527,57.666
451.27,384.37,33.547,57.701
452.6,390.04,33.431,57.501
455.18,388.46,33.365,57.387
469.2,375.92,33.292,57.262
479.56,388.49,33.356,57.372
481.12,384.02,33.36,57.379
482.2,380.61,33.214,57.129
461.24,364.66,33.14,57.001
461.21,366.33,33.07,56.881
457.14,360.33,32.994,56.75
451.01,354.85,33.188,57.084
469.29,371.94,33.359,57.377
463.08,371.76,33.205,57.112
454.78,374.52,33.28,57.241
444.74,377.27,33.178,57.067
431.51,381.66,33.102,56.935
400.96,370.35,33.114,56.956
392.77,375.36,33.04,56.828
380.03,385.33,32.977,56.72
378.54,386.8,33.004,56.767
378.48,388.28,33.137,56.996
381.22,391,33.249,57.189
382,391.82,33.297,57.271
380.9,391.5,33.412,57.469
380.03,391.73,33.472,57.571
379.77,391.14,33.588,57.772
379.12,390.36,33.835,58.197
379.12,390.77,33.805,58.145
377.42,389.75,34.001,58.482
376.49,389.44,33.964,58.418
375.83,389.39,33.93,58.359
375.18,389.3,34.015,58.506
374.6,388.28,34.223,58.863
374.1,388.66,34.276,58.955
373.92,388.44,34.22,58.859
374.08,388.35,34.282,58.965
374.28,388.74,34.396,59.161
374.4,388.24,34.553,59.43
375.73,388.59,34.503,59.346
376.34,386.41,34.348,59.079
372.89,401.28,34.726,59.728
378.23,412.22,34.948,60.11
382.43,408.16,35.049,60.285
392.8,389.81,35.177,60.504
395.25,389.71,35.382,60.857
399.44,388.92,35.349,60.801
404.42,386.68,35.585,61.206
417.88,363.06,35.097,60.366
432.29,358.12,34.903,60.033
439.39,356.17,34.691,59.669
446.78,354.18,34.273,58.949
453.12,351.19,34.418,59.199
461.48,385.7,34.537,59.403
462.05,386.44,34.683,59.655
462.2,386.15,34.786,59.832
461.64,385.06,34.92,60.062
461.11,385.43,34.949,60.112
459.64,385.16,34.96,60.132
460.21,385.29,35.026,60.245
463.9,383.94,35.185,60.517
487.15,367.07,35.04,60.268
477.32,354.12,34.889,60.008
478.98,356.28,34.725,59.726
479.65,356.22,34.728,59.731
480.51,357.51,34.686,59.659
480.87,357.33,34.696,59.677
480.47,356.43,34.785,59.829
480.26,355.81,34.817,59.886
482.65,356.78,34.782,59.824
484.9,358.33,34.778,59.818
488.12,360.06,34.524,59.381
491,359.56,34.404,59.175
494.2,358.43,34.303,59.002
500.4,355.62,34.459,59.27
500.34,354.94,34.664,59.623
500.7,355.71,34.922,60.065
444.07,194.25,35.057,60.299
459.61,175.81,35.098,60.368
452.87,152.32,35.257,60.643
454.13,149.03,35.397,60.883
454.87,146.92,35.483,61.032
454.78,145.42,35.559,61.162
454.67,144.4,35.594,61.222
456.8,142.56,35.769,61.522
455.64,142.24,35.744,61.48
455.17,140.71,35.829,61.625
455.29,138.72,35.901,61.75
454.96,137.71,36.128,62.14
453.16,138.34,36.123,62.131
453.13,136,36.308,62.449
452.27,135.11,36.356,62.532
451.22,133.5,36.321,62.473
450.21,132.95,36.084,62.065
451.22,129.94,35.945,61.826
450.19,126.47,35.735,61.465
450.83,124.59,35.742,61.477
450.71,124.9,35.581,61.199
448.87,127.4,35.219,60.577
449.35,126.45,35.019,60.232
450.89,128.25,34.836,59.917
451.93,127.13,34.635,59.573
453.32,128.34,34.621,59.548
453.88,128.16,34.66,59.616
454.84,128.56,34.675,59.641
455.58,130.57,34.769,59.803
443.99,176.63,35.117,60.401
444.11,176.05,35.365,60.827
444.71,175.32,35.581,61.199
444.53,173.64,35.955,61.842
443.82,172.84,36.246,62.343
443.19,171.78,36.627,62.998
443.1,170.71,37.144,63.887
443.48,170.38,37.606,64.681
442.08,170.61,38.025,65.404
442.24,169.79,38.356,65.972
442.33,169.42,38.599,66.39
442.06,169.79,38.742,66.636
442.6,170.07,39.214,67.448
354.65,248.35,39.709,68.299
396.07,219.32,39.434,67.826
396.02,220.46,39.232,67.479
395.55,222,39.297,67.591
393.54,222.42,39.269,67.542
390.25,222.35,39.271,67.546
385.19,222.29,39.352,67.685
383.48,220.75,39.075,67.209
382.24,218.49,38.962,67.014
381.16,215.22,38.775,66.693
380.32,213.35,38.45,66.134
380.52,213.31,38.038,65.425
380.38,215.46,37.788,64.995
378.46,221.07,37.699,64.843
377.48,228.7,37.634,64.73
376.16,237.39,37.687,64.822
384.82,246.51,37.983,65.331
398,242.83,37.97,65.308
416.98,228.73,37.931,65.242
429.58,213.4,37.861,65.122
443.32,200.5,38.18,65.67
462.52,178.43,38.025,65.404
466.46,169.68,37.864,65.126
464.92,166.22,37.778,64.978
466.75,166.13,37.517,64.53
467.85,168.97,37.379,64.292
460.1,184.72,37.405,64.336
448.59,191.62,37.244,64.059
438.75,204.98,37.342,64.228
429.87,217.41,37.531,64.553
419.85,227.92,37.817,65.045
409.28,235.56,37.95,65.275
398.69,242.86,38.004,65.367
391.08,246.82,38.173,65.658
386.13,248.98,38.233,65.761
383.6,248.64,38.282,65.845
383.61,245.32,38.137,65.596
384.74,242.28,38.043,65.434
385.61,238.34,38.066,65.473
385.82,235.19,38.088,65.512
386.84,231.01,38.219,65.737
386.89,226.04,38.317,65.905
387.35,224.22,38.28,65.842
387.76,222.86,38.194,65.694
389.06,222.18,38.319,65.909
390.48,220.82,38.572,66.344
398.03,214.88,38.416,66.076
404.45,208.89,38.355,65.97
409.63,200.4,38.179,65.667
415.22,190.69,37.826,65.06
420.58,181.1,37.706,64.854
430.69,167.8,37.774,64.972
439.12,155.36,38.08,65.497
444.65,150.41,38.301,65.878
448.88,147.31,38.235,65.765
449.67,151.29,38.378,66.01
442.96,170.52,38.209,65.719
443.21,179.48,38.193,65.691
442.71,190.31,38.211,65.724
441.4,197.58,38.013,65.382
439.55,207.78,37.748,64.926
434.92,217.85,37.649,64.755
433.05,220.64,37.452,64.418
430.93,222.61,37.403,64.333
428.35,223.46,37.396,64.321
425.99,222.96,37.273,64.11
420.67,221.08,37.208,63.998
418.73,220.24,37.109,63.827
417.19,220.3,37.008,63.654
416.22,220.68,36.713,63.147
415.23,221.23,36.554,62.873
414.86,223.6,36.4,62.609
415.43,225.65,36.465,62.721
417.47,225.85,36.696,63.118
420.85,226.18,36.821,63.332
423.84,224.87,36.739,63.191
428.16,218.73,36.607,62.965
428.96,213.74,36.398,62.604
431.08,210.56,36.191,62.249
431.88,206.89,36.218,62.295
432.38,204.26,36.263,62.373
431.03,197.99,36.471,62.73
428.29,195.77,36.607,62.964
420.71,172.86,37.149,63.897
417.6,172.29,37.481,64.468
413.97,171.33,37.683,64.814
405.08,202.23,37.443,64.401
400.05,203.81,36.928,63.517
394.72,205.66,36.543,62.854
390.37,207.26,36.192,62.25
386.76,208.55,35.849,61.66
382.19,209.99,35.708,61.417
382.18,210.64,35.795,61.567
381.37,210.79,35.829,61.626
381.37,211.45,35.849,61.66
382.4,212.29,35.675,61.361
386.69,213.46,35.709,61.42
389,213.93,35.499,61.058
391.56,213.47,35.501,61.062
394.84,212.95,35.474,61.015
398.31,212.59,35.17,60.493
401.74,212.09,34.821,59.892
408.6,210.16,34.658,59.612
412.52,209.7,34.655,59.606
415.98,208.56,34.815,59.882
418.79,207.16,34.837,59.92
424.44,205.32,35.062,60.306
427.51,204.62,35.214,60.567
430.41,204.03,35.256,60.64
433.91,203.91,35.165,60.485
436.74,203.27,34.976,60.158
443.07,202.91,34.872,59.981
445.08,202.19,34.724,59.726
448.12,202.29,34.57,59.46
451.27,202.41,34.587,59.489
453.76,202.08,34.826,59.901
456.98,201.19,35.09,60.354
458.15,201.56,34.965,60.141
459.87,201.68,34.858,59.955
460.64,200.85,34.824,59.897
461.99,200.59,34.709,59.699
464.61,200.4,34.678,59.646
465.71,200.54,34.685,59.658
466.23,200.24,34.586,59.488
466.88,200.04,34.412,59.188
466.88,199.48,34.274,58.95
467.98,200.21,34.524,59.381
468.41,200.81,34.917,60.057
469.18,202.43,35.132,60.427
469.59,203.52,35.21,60.561
470.45,204.94,35.283,60.687
471.55,207.26,35.68,61.37
471.78,208.15,36.315,62.462
472.12,208.32,36.695,63.115
472.57,209.37,37.058,63.74
473.31,210.66,37.16,63.916
474.24,211.85,37.23,64.036
476.18,213.35,37.336,64.217
477.32,213.55,37.39,64.311
478.38,212.27,37.598,64.669
479.19,211.08,37.832,65.072
480.77,210.84,37.395,64.32
481.03,210.35,37.16,63.916
480.27,209.7,36.873,63.422
479.6,208.84,36.75,63.211
477.01,207.61,36.717,63.154
474.93,206.46,36.458,62.707
470.42,205.75,36.562,62.886
469.27,205.73,36.751,63.212
469.42,206.96,36.761,63.229
469.15,208.21,36.494,62.77
468.88,209.31,36.545,62.858
468.87,213.48,36.624,62.994
468.42,215.35,36.918,63.499
468.34,216.62,37.251,64.072
468.33,216.98,37.689,64.824
467.71,217.9,38.051,65.448
466.96,216.96,38.559,66.321
466.24,215.46,38.764,66.674
465.8,213.45,39.014,67.105
465.76,211.92,39.435,67.829
466.91,209.19,39.54,68.008
469.75,206.62,39.137,67.316
471.06,205.08,38.808,66.75
472.27,202.89,38.687,66.542
472.36,200.85,38.669,66.511
473.33,199.24,38.437,66.112
476,197.3,37.895,65.179
477.1,196.13,37.585,64.645
478.24,195.02,37.654,64.765
480.1,193.32,37.788,64.995
481.83,192.13,37.918,65.219
483.68,189.79,37.823,65.056
484.62,188.58,37.896,65.18
484.35,187.57,37.814,65.039
484.23,187.41,37.675,64.801
483.24,187.06,37.892,65.175
482.05,187.84,38.171,65.654
480.85,188.22,38.656,66.488
479.49,187.91,39.035,67.141
478.18,187.96,39.377,67.729
476.72,187.89,39.783,68.426
472.98,188.65,40.187,69.122
471.75,188.91,40.424,69.53
469.85,188.66,40.858,70.276
467.44,189.7,41.608,71.566
466.16,189.35,41.765,71.836
462.46,189.8,41.851,71.983
461.13,189.8,41.713,71.746
460.11,190.53,41.385,71.182
458.67,189.68,41.348,71.118
456.75,189.68,41.113,70.714
452.99,188.43,41.267,70.979
451.39,189.04,41.825,71.94
449.2,187.2,42.361,72.861
448.07,187.46,42.762,73.551
446.82,187.52,42.979,73.925
444.84,187.68,43.031,74.013
444.15,187.69,43.241,74.375
443.05,186.74,43.679,75.128
442.88,186.93,43.814,75.361
442.92,186.97,43.962,75.615
441.94,186.21,44.313,76.218
441.87,186.54,44.307,76.207
441.58,186.87,44.482,76.508
442.01,187.78,44.463,76.476
441.83,188.02,44.556,76.635
409.24,222.22,44.514,76.563
441.51,189.05,44.52,76.574
441.89,188.93,44.573,76.666
441.58,188.58,44.58,76.677
441.64,188.67,44.499,76.538
441.94,189.04,44.406,76.379
441.65,189,44.283,76.167
441.02,188.91,44.217,76.053
441,189.46,44.088,75.832
441.75,190.26,43.784,75.309
442.25,190.86,43.616,75.019
442.45,190.95,43.42,74.683
443.76,192.11,42.979,73.924
444.45,192.09,42.984,73.933
445.48,192.44,42.974,73.915
446.35,192.28,43.177,74.264
446.7,192.13,43.129,74.181
448.37,192.89,43.145,74.21
448.85,192.3,43.198,74.301
449.62,192.11,43.179,74.267
451.02,192.42,42.66,73.376
452.5,192.93,42.44,72.997
452.9,192.47,42.072,72.364
454.27,193.09,41.439,71.275
455.12,192.97,40.904,70.355
457.26,192.83,40.563,69.768
459.21,191.65,40.105,68.98
460.68,190.11,39.89,68.61
461.16,188.89,39.715,68.31
459.5,178.11,39.083,67.223
465.02,178.75,38.845,66.814
469.6,180.67,38.498,66.216
474.78,182.71,38.26,65.808
476.8,181.25,38.256,65.8
478.42,178.62,38.847,66.816
482.04,174.1,39.173,67.378
483.3,170.93,39.447,67.848
485.05,170.28,39.601,68.114
486.23,169.15,39.508,67.953
486.99,168.58,39.497,67.935
487.86,168.23,39.338,67.661
487.8,167.96,39.071,67.202
487.67,168.03,38.851,66.824
487.21,167.74,38.759,66.665
485.83,167.61,38.71,66.581
482.19,166.23,38.751,66.652
480.94,165.86,38.673,66.518
478.94,165.45,38.61,66.41
477.44,164.88,38.48,66.186
475.88,163.84,38.486,66.196
474.29,162.45,38.267,65.82
473.27,161.46,38.188,65.683
473.29,161.24,38.169,65.65
473.3,160.94,38.22,65.738
472.94,160.64,38.173,65.658
473.41,160.64,38.161,65.636
474.22,160.63,38.115,65.557
475.99,160.48,38.2,65.703
477.43,161.72,38.054,65.453
477.25,161.57,37.677,64.804
476.19,160.36,37.158,63.912
502.56,158.42,37.71,64.861
499.1,156.68,37.918,65.219
496.11,156.07,37.977,65.321
494.11,155.88,38.221,65.741
492.41,155.9,38.373,66.001
491.33,155.6,38.523,66.26
490.5,155.28,38.751,66.651
489.84,155.08,39.089,67.233
488.95,154.97,39.284,67.569
488.24,154.75,39.222,67.462
488.02,155.01,39.23,67.475
487.93,155.16,39.189,67.405
487.67,154.99,39.279,67.56
487.18,154.71,38.966,67.021
487.09,155,38.865,66.848
486.93,154.87,38.824,66.778
486.93,154.86,38.863,66.845
486.7,154.98,38.811,66.755
486.73,155.03,38.752,66.654
486.7,155.1,39.116,67.28
486.61,154.95,39.538,68.005
486.81,154.99,39.592,68.098
487.42,155.58,39.579,68.076
488.25,156.2,39.421,67.803
491.2,156.7,39.138,67.317
493.42,157.39,38.941,66.979
496.28,156.92,38.373,66.001
499.59,156.63,37.703,64.85
503.59,155.22,37.251,64.071
510.63,151.29,37.016,63.668
514.26,150.07,36.416,62.635
518.56,148.33,35.898,61.745
522.42,146.46,35.382,60.856
527.33,145.16,35.171,60.494
534.27,141.88,35.093,60.36
537.95,140.47,34.902,60.031
540.36,138.9,34.789,59.838
542.05,137.37,34.667,59.627
544,135.42,34.758,59.783
545.81,130.95,34.904,60.035
545.82,129.75,34.96,60.132
546.75,128.71,35.048,60.283
547.36,127.22,34.873,59.982
546.58,125.2,34.785,59.83
547.14,125.16,34.882,59.996
547.42,122.32,34.377,59.128
548.79,122,34.311,59.014
549.17,121.64,34.321,59.033
548.9,121.02,34.276,58.954
549.58,119.72,34.403,59.173
550.2,117.75,34.506,59.35
550.32,116.72,34.758,59.784
550.05,116.31,34.815,59.882
549.3,115.61,35.116,60.399
549.52,114.21,35.104,60.379
550.18,111.84,35.054,60.292
551.47,110.61,35.027,60.246
552.57,109.08,35.004,60.207
552.77,107.36,35.205,60.553
551.71,105.38,35.23,60.596
550.23,102.55,35.374,60.844
549.17,101.62,35.512,61.08
547.14,100.22,35.565,61.171
545.36,100.09,35.281,60.683
544.39,101.97,35.316,60.744
540.26,112.05,35.953,61.839
538.1,118.49,36.431,62.662
536.97,126.39,36.879,63.431
535.59,133.71,37.191,63.968
534.84,141.64,37.351,64.243
534.03,154.66,37.191,63.969
533.04,160.74,37.104,63.818
533.06,166.83,36.799,63.294
533.27,171.73,36.394,62.597
533.14,175.93,36.22,62.298
532.76,181.14,36.08,62.058
533.43,183.17,35.695,61.396
533.74,184.06,35.478,61.023
533.2,183.76,35.356,60.812
533.95,183.68,35.314,60.74
534.63,181.03,35.388,60.867
535.13,179.86,35.446,60.967
534.96,177.96,35.619,61.265
535.82,177.19,35.646,61.312
536.28,176.2,35.655,61.326
538.17,175.24,35.584,61.204
539.21,174.73,35.306,60.727
540.17,174.49,35.147,60.453
540.58,173.48,34.944,60.103
541.89,173.14,34.754,59.777
542.62,170.41,34.164,58.762
543.56,168.75,33.652,57.882
545.04,167.03,32.846,56.495
546.56,165.94,32.046,55.12
547.53,165.02,31.415,54.034
549.74,163.59,31.037,53.384
551.73,162.2,30.894,53.138
552.64,161.89,30.949,53.232
552.79,161.36,30.884,53.12
559.47,157.85,30.777,52.937
554.32,160.96,30.671,52.755
542.25,160.02,30.381,52.256
540.62,158.83,29.891,51.412
567.88,162.19,29.564,50.85
569.79,163.55,29.345,50.473
569.93,169.4,29.166,50.166
563.09,173.58,28.778,49.498
566.51,177.78,28.951,49.796
565.67,180.41,28.989,49.862
574.54,190.44,29.109,50.067
563.34,191.43,29.204,50.23
559.93,191.45,29.127,50.098
562.75,197.09,29.114,50.076
562.03,198.65,29.039,49.947
562.05,201.1,29.082,50.022
559.07,204.07,29.028,49.928
558.7,204.97,29.172,50.176
557.39,205.18,29.252,50.314
554.63,205.17,29.216,50.251
553.1,204.98,29.208,50.238
547.65,205.31,29.014,49.905
546.15,205.51,29.142,50.124
545.14,205.55,29.07,50
544.05,205.49,29.126,50.096
546,205.11,29.08,50.017
545.27,203.09,28.904,49.715
544.08,203.62,28.718,49.394
543.44,203.05,29.041,49.951
541.95,201.26,29.37,50.516
542.19,201.15,29.367,50.51
540.01,199.2,29.214,50.248
539.75,198.7,29.373,50.522
539.79,198.29,29.212,50.244
537.27,196.71,29.098,50.049
535.64,196.59,28.964,49.818
535.84,196.59,29.328,50.445
532.97,196.16,29.156,50.149
533.13,195.04,28.435,48.909
532.83,194.47,28.109,48.347
532.36,194.38,27.665,47.584
532.87,193.9,27.189,46.764
531.93,193.45,26.895,46.26
532.89,193.57,26.74,45.993
533.04,193.32,26.278,45.197
533.49,193.86,25.874,44.504
533.96,193.97,25.527,43.906
534.11,193.82,25.335,43.576
533.17,193.24,25.033,43.057
533.29,193.13,24.948,42.911
532.86,192.73,24.893,42.816
531.82,193.47,25.288,43.495
530.11,192.98,25.55,43.947
527.65,193.11,25.725,44.247
525.09,192.39,25.864,44.486
522.17,191.96,26.016,44.747
516.52,190.29,26.168,45.01
515.42,190.73,26.389,45.39
513.45,190.92,26.277,45.196
513.02,192.01,26.216,45.091
512.44,192.4,26.224,45.105
511.85,194.45,26.031,44.774
510.2,194.95,25.858,44.477
508.61,195.95,25.838,44.442
507.06,197.24,25.925,44.592
502.37,196.58,25.877,44.509
499.66,196.19,25.996,44.713
496.99,193.69,26.142,44.965
496.29,191.39,26.375,45.364
494.14,188.14,26.496,45.573
491.91,186.97,26.597,45.746
488.5,184.22,26.808,46.109
488.14,182.44,27.05,46.527
487.46,180.2,26.948,46.351
488.2,179.16,27.002,46.444
489.01,177.58,27.168,46.73
492.59,175.81,27.288,46.936
494.49,174.59,27.403,47.133
495.8,173.18,27.417,47.157
497.23,172.28,27.307,46.968
499.78,172,27.465,47.24
501.16,170.97,27.475,47.257
504.24,169.86,27.576,47.432
505.74,169.69,27.739,47.712
507.02,169.28,27.718,47.675
508.75,168.75,27.937,48.052
511.46,168.67,27.86,47.919
514.04,168.52,27.919,48.02
516.08,168.32,27.659,47.573
520.51,168.18,27.553,47.39
527.39,166.38,27.671,47.595
525.19,155.02,27.854,47.909
546.84,152.96,27.661,47.577
552.22,150.94,27.369,47.075
556.52,148.87,27.227,46.831
559.84,146.56,27.138,46.677
560.98,144.08,27.076,46.57
561.07,144.01,26.948,46.351
561.67,145.58,26.759,46.025
561.14,145.87,26.486,45.556
561.31,146.37,26.505,45.589
561.18,145.94,26.408,45.421
561,144.9,26.357,45.333
561.67,144.33,26.313,45.258
562.26,143.33,26.155,44.987
563.36,143.38,26.04,44.788
563.07,141.06,25.973,44.673
562.73,139.44,25.988,44.699
562.52,137.42,26.039,44.788
562.45,134.45,26.076,44.85
561.61,131.47,26.227,45.111
561.56,128.36,26.326,45.281
560.92,126.21,26.38,45.373
560.88,124.26,26.501,45.582
561.19,124.01,26.565,45.691
562.04,122.52,26.726,45.969
569.97,121.02,26.875,46.225
578.99,121.91,26.897,46.263
588.46,121.78,26.957,46.367
600.28,122.63,27.085,46.587
608.74,122.7,27.044,46.516
615.4,123.32,26.943,46.342
623.45,124.51,26.895,46.26
623.82,124.49,26.811,46.115
623.95,124.42,26.741,45.994
622.9,124.2,26.657,45.849
622.25,124.36,26.653,45.843
621.24,124.27,26.641,45.823
620.52,124.16,26.622,45.79
619.84,124.15,26.555,45.674
619.91,124.79,26.475,45.537
619.57,124.83,26.413,45.43
618.89,124.46,26.432,45.462
618.37,124.19,26.45,45.494
618.48,123.92,26.551,45.668
618.41,123.13,26.586,45.727
618.47,121.91,26.484,45.552
617.67,120.43,26.488,45.56
617.31,120.45,26.534,45.638
615.82,120.69,26.483,45.55
613.77,121.01,26.398,45.405
612.59,121.94,26.389,45.389
613.46,124.54,26.334,45.294
613.47,124.79,26.487,45.558
613.63,126.32,26.524,45.622
613.84,127.21,26.558,45.679
614.47,128.03,26.541,45.65
615.08,128.85,26.401,45.41
615.97,129.04,26.322,45.274
617.37,129.42,26.379,45.371
618.15,129.31,26.435,45.468
619.13,129.28,26.467,45.524
620.96,129.06,26.447,45.488
621.65,129.22,26.465,45.52
621.98,129.7,26.371,45.359
622.86,129.59,26.311,45.255
622.71,130.23,26.11,44.91
622.21,131.02,25.99,44.702
622.56,132.68,25.923,44.588
622.83,134.21,26.02,44.754
618.4,136.41,26.226,45.108
616.7,139.45,26.404,45.415
611.36,143.28,26.602,45.755
607.49,145.62,26.719,45.957
602.95,146.68,26.958,46.368
601.46,150.07,27.095,46.604
598.96,150.9,27.204,46.79
595.42,152.38,27.279,46.919
594.69,152.93,27.226,46.828
592.61,152.36,27.265,46.895
590.58,151.72,27.265,46.896
588.31,150.29,27.252,46.874
582.42,146.79,27.344,47.032
580.65,143.66,27.417,47.156
579.73,141.23,27.46,47.231
577.63,137.51,27.395,47.12
577.54,135.84,27.384,47.1
575.45,131.72,27.256,46.879
575.47,129.67,27.129,46.663
573.29,126.08,27.158,46.712
572.56,122.48,27.144,46.687
571.88,119.39,27.316,46.983
571.86,113.25,27.357,47.054
571.89,109.5,27.401,47.13
571.28,105.6,27.528,47.347
569.86,101.45,27.81,47.834
568.41,96.46,28.112,48.352
568.88,92.112,28.291,48.661
568.95,89.115,28.499,49.018
569.12,87.076,28.527,49.067
568.92,85.153,28.609,49.208
568.98,84.229,28.578,49.154
569.32,82.006,28.594,49.182
569.67,82.506,28.524,49.062
569.82,82.496,28.452,48.938
570.55,83.102,28.298,48.673
572.05,83.85,27.999,48.158
572.69,89.601,27.879,47.952
573.95,94.793,27.605,47.481
574.76,104.22,27.411,47.147
573.82,113.46,27.28,46.921
574.88,125.33,27.046,46.52
574.36,144.36,27.07,46.56
571.15,168.69,27.265,46.896
570.74,190.25,27.164,46.723
569.76,210.78,27.358,47.056
569.11,231.42,27.443,47.202
566.84,259.1,27.427,47.175
568.82,280.57,27.467,47.243
568.99,290.76,27.357,47.054
569.79,300.08,27.337,47.02
570.3,305.38,27.15,46.699
570.91,308.48,27.36,47.059
571.54,309.13,27.473,47.253
571.88,307.44,27.631,47.526
574.38,303.44,27.838,47.882
574.41,300.01,27.96,48.092
575.51,293.66,27.935,48.047
575.6,291.17,28.134,48.391
575.76,288.78,28.217,48.533
575.61,286.95,28.307,48.688
575.36,285.54,28.258,48.603
574.95,283.15,28.306,48.686
574.85,282.21,28.316,48.703
574.49,280.09,28.311,48.694
574.43,278.5,28.211,48.522
574.5,275.91,28.306,48.686
574.38,269.42,28.424,48.889
575.11,266.15,28.444,48.924
575.17,261.61,28.632,49.247
575.91,255.66,28.942,49.78
576.1,250.95,29.206,50.234
576.5,241.85,29.249,50.309
576.35,236.73,29.38,50.533
576.25,232.49,29.433,50.625
575.09,228.04,29.311,50.416
574.19,223.22,29.397,50.563
572.96,219.22,29.12,50.086
572.4,218.71,28.844,49.611
571.9,218.24,28.597,49.186
571.57,218.66,28.473,48.973
571.55,219.97,28.308,48.69
511.92,107.28,28.164,48.441
510.37,103.64,27.902,47.991
510.52,103.69,27.71,47.662
519.05,102.19,27.588,47.451
521.13,103.16,27.654,47.565
523.33,105.27,27.707,47.656
523.32,104.54,27.799,47.814
523.13,103.79,28.003,48.164
523.83,105.76,28.099,48.331
523.99,106.81,28.1,48.332
515.62,88.305,28.271,48.626
512.86,83.458,28.181,48.47
513.98,84.428,28.138,48.398
514.85,84.566,28.251,48.592
515.75,84.364,28.274,48.632
516.75,85.975,28.193,48.491
516.65,85.8,28.138,48.397
516.65,86.118,28.011,48.179
517.03,87.5,27.894,47.978
516.08,86.692,27.827,47.863
515.45,88.13,27.727,47.691
515.51,88.926,27.705,47.652
515.43,89.296,27.603,47.478
515.37,89.258,27.512,47.321
515.23,89.288,27.461,47.233
514.89,89.594,27.334,47.014
515.29,89.895,27.345,47.033
515.27,89.681,27.331,47.01
515.25,89.752,27.305,46.965
515.89,89.623,27.214,46.807
515.97,89.379,27.108,46.627
515.55,88.728,27.267,46.899
516.04,88.891,27.428,47.176
515.53,87.879,27.582,47.441
515.36,87.587,27.783,47.787
513.47,85.958,27.848,47.898
512.08,85.322,27.983,48.13
510,83.965,28.102,48.335
507.56,82.067,28.124,48.374
505.15,80.714,28.21,48.521
500.02,78.844,28.421,48.884
498.02,77.874,28.607,49.203
495.55,76.817,28.728,49.412
493.8,76.292,29.008,49.893
491.84,74.826,29.264,50.334
490.07,73.856,29.633,50.969
488.04,72.497,29.815,51.282
486.61,72.003,30.074,51.726
485.65,71.363,30.441,52.359
484.72,70.729,30.867,53.092
483.79,69.968,31.245,53.741
483.11,69.225,31.549,54.264
483.18,69.502,31.765,54.636
483.59,69.048,31.93,54.919
483.06,67.536,32.305,55.565
484.27,67.494,32.479,55.864
486.61,66.924,32.549,55.985
488.3,66.921,32.743,56.318
490.52,66.342,32.814,56.44
493.79,66.915,32.812,56.436
496.6,66.112,32.851,56.503
502.57,65.891,32.798,56.412
506,64.263,32.809,56.432
509.05,62.346,32.861,56.521
512.02,60.601,32.82,56.45
515.34,59.203,32.843,56.49
519.61,56.482,32.909,56.604
521.34,54.622,33.024,56.801
523.12,53.167,33.162,57.039
525.1,52.665,33.287,57.254
526.79,51.35,33.433,57.504
529.78,49.992,33.523,57.659
531.47,49.844,33.773,58.09
531.95,48.054,34.003,58.485
533.4,47.485,33.995,58.471
535.11,47.838,33.865,58.248
537.1,46.649,33.88,58.273
538.02,46.529,33.867,58.252
539.17,46.126,33.911,58.327
540.2,45.811,33.894,58.298
540.92,45.482,33.888,58.288
542.63,45.21,33.731,58.017
542.79,44.674,33.683,57.936
578.45,33.981,34.393,59.156
575.4,35.677,34.887,60.006
573.93,36.805,35.318,60.746
571.53,37.473,35.853,61.668
568.48,38.454,36.325,62.48
567.1,40.176,36.845,63.374
564.05,44.019,36.967,63.583
563.44,44.833,36.837,63.36
559.43,54.568,37.115,63.837
557.95,56.558,37.309,64.172
552.11,77.962,37.377,64.288
552.34,76.23,37.539,64.568
552.28,74.973,37.511,64.519
552.46,73.835,37.407,64.34
553.16,73.744,37.495,64.492
553.69,73.463,37.526,64.545
552.99,72.137,38.026,65.404
553.44,71.715,38.122,65.569
550.77,69.549,37.988,65.339
549.47,67.193,38.012,65.38
547.82,62.891,38.252,65.794
546.75,61.345,38.448,66.131
546.19,60.668,38.735,66.624
544.84,59.226,39.22,67.458
544.29,61,39.485,67.915
543.42,61.322,39.558,68.04
541.86,61.457,39.358,67.696
540.33,62.423,39.165,67.364
539.31,64.114,39.226,67.468
537.48,66.644,39.45,67.854
536.25,68.364,39.382,67.736
484.82,286.64,39.367,67.711
489.29,325.56,38.858,66.835
487.92,326,38.917,66.937
518.65,327.7,38.796,66.728
518.79,326.57,38.788,66.715
518.21,325.01,38.812,66.757
519.37,328.09,38.82,66.77
518.01,325.7,38.947,66.988
517.04,324.51,39.055,67.174
516.89,323.9,38.93,66.959
517.03,324,38.949,66.992
516.1,324.52,38.979,67.044
515.93,323.77,39.053,67.17
515.7,323.13,39.103,67.258
516.03,324.06,39.01,67.097
515.58,323.65,39.12,67.287
516.05,323.79,39.228,67.473
516.12,324.11,39.251,67.511
516.33,324.18,39.16,67.355
517.02,324.64,39.207,67.437
517.96,324.21,39.261,67.529
519.12,324.51,39.343,67.67
519.56,324.59,39.299,67.595
520.09,324.13,39.356,67.692
521.31,324.78,39.341,67.666
522.44,324.9,39.498,67.936
522.42,324.68,40.055,68.894
522.51,324.34,40.311,69.334
523.07,324.64,40.328,69.364
523.62,325.62,39.93,68.68
524.41,327.55,39.617,68.142
525.57,329.98,38.945,66.985
510.61,323.45,38.924,66.95
514.37,324.62,38.733,66.621
518.58,311.55,38.529,66.269
519.05,314,38.421,66.084
519.25,313.1,38.351,65.963
519.26,312.4,38.357,65.974
520.28,313.16,38.351,65.964
521.04,318.87,38.314,65.9
522.58,325.7,38.691,66.549
523.31,325.71,39.038,67.145
523.78,325.86,39.366,67.71
524.48,326.08,39.69,68.266
525.02,326.07,39.903,68.632
526.13,326.38,39.976,68.759
527.03,326.12,39.993,68.788
527.44,325.56,40.04,68.869
528.02,325.35,40.116,69
528.86,324.75,40.037,68.863
529.97,325.8,40.109,68.988
531.52,326.29,40.097,68.966
532.61,326.07,40.137,69.036
533.6,325.38,40.021,68.835
535.07,326.44,39.923,68.667
536.78,325.84,39.66,68.215
538.77,325.4,39.317,67.625
539.72,324.85,39.014,67.104
540.72,325.21,39.102,67.255
542.44,325.61,39.02,67.114
543.85,324.06,38.967,67.024
548.53,325.03,39.081,67.219
549.59,325.92,38.903,66.914
550.33,328.23,38.85,66.821
553.13,326.92,38.837,66.799
553.75,328.21,38.69,66.547
557.3,327.16,38.722,66.601
559.82,326.74,38.516,66.248
562.2,326.22,38.183,65.675
564.93,324.9,37.813,65.038
567.25,320.57,38.074,65.488
572.19,320.24,37.759,64.946
574.18,309.45,37.861,65.12
576.09,306.88,37.972,65.312
577.9,304.36,38.297,65.871
580.06,304.09,38.582,66.361
585.07,303.95,38.829,66.785
587.97,304.9,39.024,67.121
590.7,305.45,39.145,67.329
596.77,310.35,39.294,67.586
600.41,311.4,39.309,67.611
617.83,324.79,39.439,67.836
620.3,324.42,39.475,67.897
621.76,324.16,39.434,67.827
622.06,323.45,39.571,68.062
623.21,324.27,39.657,68.21
623.77,324.12,39.69,68.266
624.04,323.46,39.803,68.461
624.02,322.82,39.787,68.434
624.5,323.74,39.694,68.274
625.22,324.03,39.838,68.522
625.82,322.51,39.654,68.205
625.45,321.38,39.512,67.961
625.37,320.65,39.315,67.623
624.9,321.68,39.144,67.328
624.65,322.19,38.821,66.772
624.74,322.21,38.567,66.335
624.67,322.42,38.441,66.119
625,322.95,38.038,65.425
625.23,323.72,37.797,65.011
624.98,323.96,37.655,64.767
625.05,324.55,37.405,64.336
625.3,324.67,37.154,63.905
625.42,325.3,37.044,63.715
625.35,325.19,36.94,63.536
625.13,325.01,36.733,63.181
625.3,325.38,36.675,63.081
624.73,325.68,36.87,63.417
624.72,326.14,36.85,63.383
624.61,326.06,37.017,63.67
624.62,326.54,37.053,63.731
624.55,326.59,37.053,63.73
624.42,326.84,37.122,63.849
624.15,326.91,37.263,64.093
624.08,326.99,37.353,64.247
624.45,327.76,37.621,64.709
623.99,327.17,37.882,65.157
623.34,326.12,38.235,65.764
622.76,326.06,38.464,66.157
622.46,326.68,38.318,65.907
620.92,326.17,38.424,66.09
618.57,326.65,38.267,65.819
616.56,326,38.155,65.627
614.67,325.08,38.292,65.862
609.74,324.39,38.047,65.441
605.37,324.65,37.968,65.305
592.83,325.99,37.963,65.297
585.35,327.09,38.11,65.548
578.95,327.52,38.228,65.752
572.37,327.33,38.004,65.367
566.01,328.17,38.188,65.684
556.26,328.17,38.563,66.328
550.83,328.37,38.579,66.356
546.39,327.82,38.495,66.212
543.03,327.32,38.526,66.264
540.27,327.14,38.373,66.001
540.32,326.68,38.358,65.975
540.14,326.8,38.42,66.083
540.54,328.26,38.875,66.865
541.59,330.9,39.288,67.576
542.54,333.84,39.557,68.038
541.32,336.08,39.721,68.32
540.87,337.35,39.857,68.554
541.07,338.9,39.911,68.646
537.16,330.49,40.46,69.592
535.13,324.99,40.774,70.131
534.22,326.38,41.047,70.601
533.44,325.71,41.136,70.755
533.34,327.97,41.118,70.722
532.67,327.04,41.331,71.089
532.36,327.35,41.498,71.376
531.17,325.72,41.511,71.398
530.68,325.56,41.487,71.357
530.83,326.11,41.541,71.45
531.2,327.19,41.548,71.463
531.23,327.19,41.658,71.652
531.43,326.83,41.811,71.915
531.2,326.43,41.824,71.937
530.9,325.59,41.881,72.035
530.78,325.78,41.983,72.211
531.15,325.98,42.053,72.332
531.38,325.68,42.365,72.867
531.75,325.56,42.436,72.99
531.17,324.8,42.656,73.368
532.12,325.56,42.538,73.166
531.91,325.54,42.561,73.205
532.83,325.61,42.43,72.98
533.69,325.66,42.358,72.856
534.59,325.93,42.309,72.771
535.22,326.14,42.226,72.629
535.65,326.04,42.042,72.313
537.87,326.84,41.871,72.019
539.48,327.94,41.821,71.932
541.57,331.34,41.856,71.993
542.62,331.56,41.924,72.11
543.37,331.25,41.796,71.889
543.45,329.34,41.894,72.058
543.99,327.93,41.857,71.993
543.92,327.08,41.779,71.859
543.84,327.11,41.663,71.661
520.75,188.8,41.506,71.39
530.94,187.58,41.612,71.572
533.19,187.1,41.733,71.78
544.05,206.78,41.966,72.181
542.47,204.65,41.753,71.816
542.51,202.67,41.815,71.921
549.39,203.84,41.728,71.773
548.3,187.34,41.594,71.542
549.17,195.39,41.616,71.58
551.77,194.95,41.733,71.78
554.72,195.14,41.954,72.16
555.86,188.16,42.313,72.778
556.29,182.96,42.223,72.623
555.16,179.99,42.307,72.769
555.5,180.72,42.648,73.354
550.71,171.22,42.782,73.585
545.93,163.67,42.582,73.242
545.82,165.35,42.695,73.436
544.52,167.55,43.089,74.114
543.01,193.56,43.338,74.541
540.68,199.78,43.193,74.293
532.59,204.49,43.02,73.995
528.72,204.69,42.808,73.63
524.65,205.17,42.88,73.753
522.79,208.95,42.579,73.237
520.21,213.67,42.327,72.803
519.75,216.69,42.123,72.451
515.51,220.82,41.715,71.749
514.76,221.07,41.459,71.309
514.38,222.26,41.192,70.85
514.52,223.22,41.026,70.565
514.33,224.01,40.262,69.25
515.05,222.21,40.638,69.897
515.23,220.61,41.035,70.58
515.4,219.97,41.434,71.267
515.81,218.03,41.345,71.114
517.11,216.33,41.219,70.896
518.01,215.59,40.763,70.113
517.44,216.48,40.431,69.542
517.17,216.92,40.505,69.669
515.55,219.71,41.01,70.537
515.13,220.44,40.592,69.819
515.15,223.04,41.221,70.9
515.39,223.83,41.584,71.525
515.59,222.81,42.383,72.898
517.06,221.52,42.798,73.612
519.12,219.4,42.92,73.822
523.78,213.41,42.954,73.88
527.06,209.28,42.863,73.724
531.05,203.04,42.886,73.764
535.2,192.94,42.669,73.391
537.74,186.22,42.394,72.918
540.47,166.84,42.354,72.849
540.57,160.05,42.372,72.881
542.34,150.53,42.464,73.038
542.36,139.76,42.603,73.276
543.21,133.53,42.558,73.2
546.2,129,42.585,73.246
549.88,131.29,42.904,73.795
551.19,130.66,43.471,74.77
552.75,129.84,43.988,75.66
554.29,129.6,44.324,76.237
557.84,131.18,44.23,76.076
560.49,131.83,44.277,76.156
564.63,134.15,44.278,76.158
566.09,132.79,44.433,76.424
568.98,134.09,44.604,76.72
571.88,136.42,44.83,77.107
575.46,139.95,44.866,77.17
578.05,142.99,44.943,77.301
580.09,143.87,45.134,77.63
580.55,140.27,45.333,77.972
581.69,134.07,45.272,77.867
582.81,131.43,45.557,78.358
585.7,130.36,45.449,78.172
586.12,128.02,45.498,78.256
587.56,126.3,45.782,78.745
590.1,125.16,46.125,79.336
592.03,123.9,46.317,79.666
596.43,123.46,46.52,80.014
604.78,123.39,46.737,80.388
611.53,123.88,46.968,80.786
626.11,133.08,47.784,82.189
635.37,145.42,47.863,82.324
640.66,196.23,48.131,82.785
636.92,199.47,48.144,82.808
