240.5,324.5,69,160
240.04,331.03,69.018,160.04
240.18,331.15,69.099,160.23
239.92,330.74,69.188,160.43
240.17,331.3,68.57,159
240.15,331.12,68.752,159.43
240.16,331,68.805,159.55
240.21,331.33,68.455,158.74
240.19,331.09,68.568,159
240.12,330.91,68.612,159.1
240.07,331.03,68.405,158.62
239.93,330.88,68.512,158.87
239.81,330.74,68.575,159.01
239.76,331,68.318,158.42
239.39,330.96,68.369,158.54
239.45,331.61,67.809,157.24
239.34,331.8,67.732,157.06
239.04,331.86,67.645,156.86
238.74,331.54,67.943,157.55
238.61,331.59,67.998,157.68
238.46,331.68,67.88,157.4
238.32,331.67,67.848,157.33
238.22,331.79,67.809,157.24
238.01,331.86,67.765,157.14
237.8,331.81,67.802,157.22
237.73,331.81,67.79,157.19
237.73,331.83,67.764,157.13
237.64,331.88,67.763,157.13
237.75,332.27,67.495,156.51
237.56,331.76,67.861,157.36
237.82,332.27,67.51,156.54
237.55,331.95,67.656,156.88
237.67,331.67,67.939,157.54
237.91,332.09,67.681,156.94
238.2,332.25,67.71,157.01
238.35,332.15,67.6,156.75
238.23,331.64,67.962,157.59
238.57,331.95,67.836,157.3
238.31,331.32,68.047,157.79
238.97,331.84,67.961,157.59
239.17,331.25,68.255,158.27
239.97,331.09,68.336,158.46
239.67,331.46,68.315,158.41
240.12,331.48,68.241,158.24
240.45,330.9,68.35,158.49
240.64,330.69,68.575,159.02
240.15,332.19,68.271,158.31
238.27,331.78,68.663,159.22
237.61,332.03,68.57,159
238.65,332.63,68.037,157.77
239.11,332.24,68.182,158.1
239.01,331.96,67.981,157.64
239.32,331.4,68.66,159.21
239.48,331.03,68.602,159.08
239.38,331.33,68.54,158.93
239.48,332.27,67.926,157.51
239.46,331.63,68.352,158.5
239.58,331.23,68.527,158.9
239.75,331.31,68.535,158.92
239.65,331.24,68.548,158.95
239.57,331.41,68.51,158.86
239.57,331.37,68.509,158.86
239.5,331.28,68.498,158.83
239.41,331.25,68.5,158.84
239.45,331.19,68.541,158.94
239.51,331.25,68.518,158.88
239.46,331.15,68.584,159.04
239.44,331.27,68.435,158.69
239.39,331.12,68.523,158.89
239.44,331.11,68.542,158.94
239.41,331.11,68.519,158.88
239.27,330.7,68.788,159.51
239.2,330.69,68.815,159.57
239.28,330.71,68.819,159.58
239.28,330.7,68.793,159.52
239.26,330.76,68.755,159.43
239.27,330.64,68.823,159.59
239.25,330.57,68.87,159.7
239.17,330.75,68.564,158.99
239.26,330.71,68.738,159.39
239.28,330.61,68.809,159.56
239.27,330.6,68.826,159.6
239.26,330.55,68.865,159.69
239.26,330.54,68.891,159.75
239.24,330.51,68.933,159.84
239.19,330.5,68.974,159.94
239.12,330.34,69.071,160.16
239.12,330.33,69.101,160.23
239.06,330.32,69.097,160.23
239.09,330.4,69.053,160.12
239.03,330.32,69.097,160.23
239.05,330.3,69.104,160.24
238.96,330.31,69.132,160.31
238.95,330.31,69.137,160.32
239,330.32,69.105,160.24
239.02,330.39,69.07,160.16
238.99,330.29,69.116,160.27
238.98,330.31,69.142,160.33
239.13,330.68,68.855,159.66
239.15,330.76,68.775,159.48
239.07,330.54,68.964,159.92
239.02,330.3,69.12,160.28
239.07,330.67,68.861,159.68
239.01,330.47,69.022,160.05
239.27,330.91,68.84,159.63
239.19,331.2,68.413,158.64
239.14,330.84,68.627,159.13
239.15,331.01,68.465,158.76
238.93,330.75,68.707,159.32
239.04,330.97,68.502,158.84
238.95,330.91,68.563,158.99
238.88,330.9,68.572,159.01
238.94,330.93,68.496,158.83
238.87,330.83,68.571,159.01
238.93,330.88,68.532,158.91
238.85,330.8,68.587,159.04
239,330.98,68.423,158.66
238.88,330.69,68.648,159.18
238.96,330.94,68.449,158.72
238.8,330.65,68.645,159.18
238.95,330.98,68.45,158.72
238.83,330.71,68.636,159.16
238.95,330.91,68.448,158.72
238.79,330.63,68.692,159.29
239.03,330.89,68.439,158.7
238.91,330.58,68.664,159.22
239.07,330.64,68.556,158.97
239.05,330.4,68.611,159.1
239.2,330.39,68.518,158.88
238.96,330.31,68.575,159.02
238.83,330.56,68.533,158.92
238.71,330.65,68.605,159.08
238.88,330.54,68.565,158.99
238.62,330.52,68.644,159.17
238.58,330.61,68.562,158.99
238.45,330.52,68.68,159.26
238.59,330.63,68.584,159.04
238.49,330.64,68.579,159.02
238.22,330.43,68.597,159.07
238.46,330.66,68.546,158.95
238.38,330.57,68.656,159.2
238.52,330.68,68.532,158.91
238.34,330.58,68.669,159.23
238.5,330.62,68.539,158.93
238.34,330.54,68.714,159.34
238.52,330.6,68.598,159.07
238.58,330.65,68.55,158.96
238.48,330.61,68.642,159.17
238.55,330.58,68.54,158.93
238.48,330.6,68.696,159.29
238.59,330.63,68.537,158.93
238.55,330.59,68.655,159.2
238.54,330.64,68.572,159.01
238.52,330.68,68.609,159.09
238.59,330.6,68.543,158.94
238.47,330.52,68.715,159.34
238.54,330.56,68.644,159.17
238.58,330.61,68.543,158.94
238.67,330.56,68.641,159.17
238.61,330.6,68.56,158.98
238.62,330.53,68.681,159.26
238.65,330.58,68.567,159
238.68,330.55,68.663,159.22
238.84,330.58,68.537,158.93
238.71,330.47,68.65,159.19
238.82,330.59,68.529,158.91
238.66,330.49,68.636,159.16
238.77,330.48,68.496,158.83
238.81,330.28,68.601,159.07
238.84,330.85,68.451,158.73
238.76,330.59,68.714,159.34
238.79,330.78,68.572,159.01
238.78,330.84,68.545,158.94
238.71,330.5,68.663,159.22
238.77,330.53,68.57,159
238.98,330.35,68.588,159.04
239.01,330.28,68.567,159
238.9,330.1,68.704,159.31
239.12,330.35,68.692,159.29
239.26,330.06,68.872,159.7
238.43,329.76,68.828,159.6
238.44,330.18,68.725,159.36
238.78,330.78,68.629,159.14
238.73,330.75,68.526,158.9
238.56,330.92,68.431,158.68
238.31,331.07,67.878,157.4
238.38,332.85,67.146,155.7
237.35,332.75,67.235,155.91
233.85,334.16,67.155,155.72
228.67,331.39,68.126,157.97
240.17,327.22,69.561,161.3
238.95,327.67,70.042,162.42
237.51,327.3,70.523,163.53
237.88,328.79,70.096,162.54
238.84,329.72,69.322,160.75
239.39,330.95,68.57,159
238.86,330.58,68.483,158.8
238.67,330.19,68.614,159.1
238.56,330.36,68.484,158.8
238.38,330.35,68.583,159.03
238.52,330.29,68.577,159.02
238.24,330.16,68.523,158.89
238.33,330.31,68.589,159.05
238.46,330.43,68.475,158.78
238.33,330.43,68.5,158.84
238.31,330.3,68.573,159.01
238.28,330.4,68.528,158.91
238.26,330.42,68.616,159.11
238.37,330.74,68.55,158.96
238.29,330.53,68.724,159.36
238.63,331.02,68.578,159.02
238.25,330.87,68.292,158.36
238.39,330.71,68.623,159.12
238.34,330.72,68.619,159.12
238.29,330.75,68.624,159.13
238.22,330.85,68.575,159.01
238.19,330.87,68.631,159.15
238.22,330.82,68.68,159.26
238.2,330.7,68.721,159.35
238.22,330.71,68.695,159.29
238.23,330.74,68.681,159.26
238.28,330.82,68.69,159.28
238.48,331.18,68.485,158.81
238.46,331.4,68.507,158.86
238.47,331.53,68.569,159
238.51,331.94,68.537,158.93
238.63,332.24,68.395,158.6
238.6,332.28,68.426,158.67
238.59,332.35,68.454,158.73
238.57,332.41,68.504,158.85
238.58,332.54,68.51,158.86
238.64,332.66,68.514,158.87
238.59,332.9,68.525,158.9
238.57,332.99,68.517,158.88
239.12,333.05,68.348,158.49
240.42,333.03,68.463,158.75
241.34,333.17,68.376,158.55
242.03,333.29,68.289,158.35
242.49,333.04,68.488,158.81
242.71,333.23,68.398,158.6
242.75,332.9,68.621,159.12
242.85,332.9,68.563,158.99
242.83,332.78,68.601,159.08
242.9,332.81,68.396,158.6
242.82,332.66,68.461,158.75
242.89,332.66,68.453,158.73
242.71,332.53,68.566,158.99
242.46,332.48,68.586,159.04
242.42,332.36,68.481,158.8
242.28,332.21,68.575,159.01
242.23,332.15,68.572,159.01
242.35,332.51,68.236,158.23
242.29,332.48,68.164,158.06
242.21,332.1,68.379,158.56
242.14,331.87,68.519,158.88
242.09,331.78,68.495,158.83
242.12,331.82,68.432,158.68
242.16,331.81,68.39,158.59
242.14,331.79,68.387,158.58
242.12,331.67,68.426,158.67
242.11,331.61,68.446,158.72
242.1,331.43,68.486,158.81
242.14,331.53,68.374,158.55
242.17,331.44,68.368,158.53
242.21,331.42,68.346,158.48
242.23,331.44,68.334,158.46
242.19,331.4,68.333,158.45
242.23,331.39,68.315,158.41
242.21,331.4,68.302,158.38
242.19,331.34,68.315,158.41
242.14,331.3,68.325,158.44
242.05,331.1,68.476,158.78
242,331.26,68.427,158.67
242.03,331.19,68.409,158.63
241.92,330.92,68.602,159.08
241.99,331.02,68.448,158.72
241.07,330.79,68.507,158.86
236.29,330.79,68.523,158.89
230.57,330.48,68.576,159.02
229.59,330.18,68.718,159.35
229.11,330.5,68.488,158.81
228.95,330.63,68.505,158.85
228.79,330.81,68.467,158.76
228.67,330.73,68.576,159.02
228.6,331.01,68.453,158.73
228.46,330.82,68.598,159.07
228.57,331.06,68.417,158.65
228.5,331.12,68.481,158.8
228.44,331.16,68.486,158.81
228.43,331.21,68.482,158.8
228.44,331.28,68.473,158.78
229.41,331.55,68.261,158.29
230.28,331.75,68.064,157.83
230.96,331.79,68.019,157.72
231.3,331.9,68.061,157.82
231.45,331.66,68.267,158.3
231.52,331.59,68.365,158.53
231.6,331.55,68.399,158.61
231.59,331.33,68.527,158.9
231.72,331.52,68.418,158.65
231.63,331.27,68.504,158.85
231.68,331.32,68.538,158.93
231.7,331.35,68.495,158.83
231.62,331.17,68.626,159.13
231.66,331.29,68.435,158.69
231.66,331.19,68.598,159.07
231.61,331.27,68.46,158.75
231.65,331.2,68.575,159.02
231.68,331.28,68.522,158.89
231.59,331.06,68.673,159.24
231.61,331.08,68.523,158.89
231.55,330.89,68.691,159.28
231.61,330.89,68.634,159.15
231.59,330.82,68.621,159.12
231.48,330.69,68.682,159.26
231.48,330.59,68.691,159.28
231.47,330.49,68.669,159.23
231.48,330.51,68.671,159.24
231.51,330.55,68.661,159.21
231.51,330.55,68.638,159.16
231.54,330.61,68.612,159.1
231.49,330.62,68.578,159.02
231.26,330.29,68.673,159.24
231.51,330.35,68.655,159.2
231.53,330.34,68.666,159.22
231.53,330.28,68.679,159.26
231.55,330.27,68.631,159.14
231.57,330.28,68.571,159.01
231.51,330.19,68.615,159.11
231.55,330.15,68.541,158.94
231.49,330,68.675,159.25
231.52,330.08,68.634,159.15
231.58,330.14,68.563,158.99
231.47,330.01,68.661,159.21
231.55,330.12,68.581,159.03
231.17,329.64,68.818,159.58
231.51,330.02,68.695,159.29
231.56,330.07,68.602,159.08
231.57,330.14,68.554,158.96
231.49,329.96,68.68,159.26
231.6,330.08,68.541,158.94
231.58,330.01,68.609,159.09
231.61,330.11,68.524,158.9
231.39,329.65,68.863,159.68
231.54,329.95,68.644,159.17
231.57,329.99,68.557,158.97
231.45,329.82,68.658,159.21
231.37,329.92,68.481,158.8
231.49,330.52,67.984,157.64
231.36,330.78,67.938,157.54
230.74,330.79,67.913,157.48
230.62,330.98,67.815,157.25
230.63,331.27,67.477,156.47
230.13,331.57,67.211,155.85
229.78,331.64,67.3,156.06
228.97,331.66,67.298,156.05
228.02,331.56,67.486,156.49
227.03,331.42,67.654,156.88
225.74,331.73,67.588,156.73
224.41,331.72,67.578,156.7
223.98,331.8,67.46,156.43
223.2,331.63,67.614,156.79
221.63,331.53,67.757,157.12
221.17,331.38,67.82,157.26
219.83,331.36,67.809,157.24
218.34,330.62,68.196,158.14
217.21,330.73,68.243,158.24
216.63,330.64,68.303,158.38
215.35,330.37,68.437,158.69
214.52,329.92,68.65,159.19
213.65,329.84,68.751,159.42
212.88,329.81,68.929,159.84
212.26,329.46,69.132,160.31
211.82,329.31,69.29,160.67
211.34,329.03,69.461,161.07
210.6,328.86,69.561,161.3
210.69,328.97,69.739,161.71
210.63,328.75,69.971,162.25
210.46,328.75,69.903,162.09
210.4,328.76,69.93,162.16
210.36,328.79,70.036,162.4
210.05,328.06,70.402,163.25
209.64,327.83,70.483,163.44
209.33,327.68,70.891,164.39
208.57,327.4,70.825,164.23
208.1,326.86,71.241,165.2
207.41,326.31,71.254,165.23
206.5,325.97,71.304,165.34
206.39,325.98,71.44,165.66
205.45,325.92,71.495,165.78
203.94,325.46,71.449,165.68
202.32,325.14,71.697,166.25
200.81,325.4,71.669,166.19
198.56,325.05,71.874,166.66
196.19,324.2,71.966,166.88
195.04,324.67,71.909,166.74
192.54,324.64,71.964,166.87
192.32,324.52,71.94,166.82
189.73,324.87,71.845,166.6
187.2,324.82,71.97,166.89
185.16,324.4,72.326,167.71
184.75,324.18,72.241,167.52
184.44,323.92,72.4,167.88
184.52,325.27,72.135,167.27
180.38,325.06,72.234,167.5
180.17,325.81,71.961,166.87
182.65,323.96,72.213,167.45
182.85,326.35,71.701,166.26
205.73,328.13,71.575,165.97
203.43,325.28,71.759,166.4
176.31,327.61,71.734,166.34
172.78,327.68,71.425,165.62
172.83,328.69,71.635,166.11
174.69,328.59,72.197,167.41
177.68,330.72,72.364,167.8
179.46,330.52,71.976,166.9
179.35,330.41,71.63,166.1
178.78,330.54,71.679,166.21
178.06,332.39,70.734,164.02
177.99,332.75,69.963,162.23
177.55,332.2,69.478,161.11
176.85,331.34,69.311,160.72
177.14,331.36,69.333,160.77
177.35,330.25,69.475,161.1
176.3,330.08,69.145,160.34
175.92,331.01,69.107,160.25
175.6,331.08,69.013,160.03
175.62,331.09,68.948,159.88
176.55,330.38,68.999,160
177.6,329.94,69.123,160.28
178.04,329.45,69.448,161.04
179.05,329.43,69.796,161.85
178.99,330.06,69.819,161.9
180.02,330.04,69.887,162.06
179.8,330.16,69.81,161.88
181.04,330.15,69.823,161.91
181.68,330.13,69.75,161.74
182.59,329.84,69.634,161.47
184.51,330.62,69.449,161.04
186.06,330.78,69.352,160.82
187.87,330.87,69.274,160.64
189.56,331.16,69.185,160.43
190.94,330.56,69.167,160.39
192.33,330.12,69.101,160.23
193.48,330.01,69.082,160.19
194.22,329.65,69.196,160.45
195.98,329.26,69.326,160.76
197.27,329.12,69.353,160.82
198.45,328.54,69.52,161.21
199.43,328.58,69.572,161.33
199.74,329.67,69.399,160.93
199.35,330.13,69.347,160.8
200.41,329.63,69.391,160.91
200.23,329.79,69.516,161.2
199.98,329.79,69.536,161.24
200.51,329.93,69.491,161.14
200.75,329.55,69.625,161.45
200.66,329.52,69.727,161.69
200.28,328.96,69.895,162.07
199.57,328.87,70.101,162.55
199.62,328.44,70.263,162.93
199.34,328.32,70.22,162.83
199.25,328.2,70.379,163.2
198.96,327.6,70.432,163.32
199.21,327.58,70.533,163.55
199.31,327.36,70.775,164.12
199.36,327.32,70.858,164.31
198.88,326.98,70.854,164.3
198.84,326.86,70.859,164.31
198.86,326.82,70.889,164.38
199.06,326.5,71.027,164.7
199.06,325.87,71.247,165.21
199.01,326.11,71.131,164.94
199.61,327.14,71.003,164.65
199.23,327.48,70.752,164.06
199.44,327.83,70.566,163.63
199.52,328.06,70.477,163.43
199.87,328.39,70.352,163.13
199.39,328.05,70.191,162.76
199.89,328.24,70.351,163.13
199.36,327.98,70.191,162.76
199.92,328.28,70.382,163.2
199.42,328.15,70.08,162.5
199.35,328.41,69.893,162.07
199.48,328.53,70.275,162.96
199.25,328.69,69.985,162.28
199.33,328.71,69.874,162.03
199.3,328.64,69.922,162.14
199.46,328.93,69.867,162.01
199.33,328.67,69.851,161.97
199.51,328.72,69.762,161.77
199.47,328.59,69.786,161.82
199.48,328.43,69.854,161.98
199.54,328.32,70.135,162.63
199.61,328.22,70.201,162.79
199.83,328.18,70.202,162.79
199.68,328.13,70.224,162.84
199.73,328.05,70.261,162.92
199.26,327.37,70.632,163.78
199.18,327.26,70.448,163.36
199.16,327.1,70.694,163.93
199.17,327.3,70.395,163.23
199.53,327.15,70.53,163.55
199.62,327.59,70.584,163.67
199.09,327.83,70.429,163.31
199.56,328.74,69.858,161.99
199.45,328.43,70.222,162.83
199.79,328.66,70.201,162.79
199.84,328.77,70.211,162.81
200.06,328.86,70.124,162.61
200,328.48,70.146,162.66
199.92,328.51,70.149,162.66
199.62,328.49,70.175,162.72
199.55,328.36,70.192,162.76
199.71,328.36,70.326,163.07
199.56,328.03,70.29,162.99
199.4,327.69,70.47,163.41
199.25,327.45,70.571,163.64
199.31,327.11,70.711,163.97
199.37,327.19,70.696,163.93
199.44,327.12,70.701,163.95
199.57,327.14,70.623,163.76
199.48,326.66,70.709,163.96
199.76,326.81,70.655,163.84
199.58,326.18,70.871,164.34
200,326.55,70.728,164.01
200.1,326.51,70.676,163.89
200.09,326.16,70.71,163.96
200.14,325.82,71.241,165.2
200.14,325.33,71.486,165.76
200.82,325.21,71.685,166.23
201.41,325.14,71.885,166.69
201.45,324.54,71.956,166.85
202.4,325.02,71.919,166.77
202.99,324.77,71.738,166.35
204.01,325.16,71.627,166.09
204.48,325.74,71.161,165.01
204.86,326.68,70.735,164.02
206.37,327.83,70.236,162.87
208.38,329.55,69.779,161.81
209.03,330.75,68.887,159.74
210.45,332.92,68.102,157.92
211.91,334.3,67.445,156.39
213.26,334.78,67.04,155.45
214.17,334.82,66.413,154
216.62,334.87,66.276,153.68
217.94,334.29,66.613,154.47
218.02,331.15,67.308,156.08
219.91,327.76,68.311,158.4
220.74,325.71,69.076,160.18
220.72,324.82,69.466,161.08
221.01,323.93,69.558,161.29
221.55,324.69,69.207,160.48
222.05,326.08,68.76,159.44
222.7,325.86,69.315,160.73
224.36,327.36,69.384,160.89
223.96,328.39,69.278,160.64
224.8,328,69.656,161.52
225.91,327.11,70,162.32
227.43,327.19,69.886,162.05
228.42,327.23,69.686,161.59
228.91,327.18,69.753,161.75
228.7,326.59,69.913,162.12
228.64,326.98,69.987,162.29
228.1,326.66,69.943,162.19
227.17,326.76,70.102,162.55
226.94,326.74,70.26,162.92
226.11,326.83,70.311,163.04
225.55,326.69,70.295,163
224.4,325.69,70.354,163.14
223.02,325.27,70.434,163.32
222.46,325.43,70.393,163.23
221.35,325.21,70.377,163.19
220.19,325,70.256,162.91
218.71,325.07,70.387,163.22
216.98,324.68,70.37,163.18
215.56,324.72,70.267,162.94
214.27,324.59,70.494,163.46
212.72,324.84,70.614,163.74
210.42,324.27,70.707,163.96
208.38,324.32,70.887,164.37
206.52,324.46,70.874,164.35
204.3,324.74,71.103,164.88
202.18,325.38,71.002,164.64
199.24,325.3,70.907,164.42
194.86,326.2,70.592,163.69
189.82,326.64,70.655,163.84
184.86,325.97,70.739,164.03
180.7,326.48,70.396,163.24
175.9,327.15,70.03,162.39
170.73,327.39,70.049,162.43
167.71,327.43,69.967,162.24
165.06,327.95,70.198,162.78
162.29,328.37,70.267,162.94
157.93,328.18,70.448,163.36
155.33,327.97,70.376,163.19
150.89,327.4,70.37,163.18
147,327.28,70.326,163.08
142.24,327.97,70.467,163.4
136.45,328.61,70.15,162.67
134.03,328.66,69.633,161.47
130.28,328.89,69.6,161.39
126.41,329.54,69.562,161.3
121.52,329.13,69.56,161.3
117.28,329.52,69.666,161.55
113.99,329.32,69.876,162.03
109.5,328.89,70.126,162.61
107.71,328.4,70.279,162.96
106.56,328.41,70.411,163.27
103.95,327.82,70.815,164.21
103.58,327.42,71.062,164.78
102.39,327.52,71.258,165.24
101,327.12,71.318,165.38
100.01,327.29,71.395,165.55
97.845,327.74,72.022,167.01
95.39,327.71,72.639,168.44
94.082,327.89,72.821,168.86
93.164,327.35,73.108,169.52
91.864,326.9,73.111,169.53
91.761,326.73,73.239,169.83
91.19,326.67,73.459,170.34
90.028,326.65,73.555,170.56
88.558,326.56,73.531,170.51
88.673,326.56,73.688,170.87
87.774,326.57,73.654,170.79
87.368,326.53,73.595,170.65
86.89,326.72,73.616,170.7
86.674,326.88,73.695,170.89
86.364,327.3,73.548,170.55
85.99,327.4,73.515,170.47
86.263,327.69,73.536,170.52
85.877,327.5,73.709,170.92
85.443,327.04,73.741,170.99
85.444,327.28,73.762,171.04
85.034,326.72,73.957,171.49
84.19,326.33,73.903,171.37
83.616,325.81,73.988,171.57
83.835,326.05,74.041,171.69
83.943,326.26,74.014,171.63
82.946,326.19,74.02,171.64
82.764,326.8,73.905,171.37
82.443,326.57,73.868,171.29
82.366,326.7,73.776,171.08
82.817,327.51,73.39,170.18
81.842,328.13,72.842,168.91
82.163,328.66,72.755,168.71
81.832,328.71,72.437,167.97
82.102,328.62,72.374,167.82
82.574,327.68,72.877,168.99
82.416,327.43,73.178,169.69
83.014,328.59,72.616,168.39
83.062,329.25,72.451,168
82.622,330.19,71.877,166.67
82.461,330.95,71.506,165.81
82.258,331.53,71.339,165.42
81.869,332.63,70.902,164.41
81.017,332.93,70.784,164.14
80.476,333,70.618,163.75
79.64,332.47,70.691,163.92
79.029,332.11,70.533,163.56
78.694,331.97,70.563,163.62
78.073,330.95,70.714,163.98
77.74,330.81,70.564,163.63
78.228,330.31,70.826,164.23
78.001,330.33,70.898,164.4
77.617,330.46,70.706,163.96
77.43,330.17,70.713,163.97
77.238,329.98,70.778,164.12
77.489,330.6,70.699,163.94
76.686,330.19,70.935,164.49
76.032,329.63,71.103,164.88
76.257,330.11,71.074,164.81
76.042,330.2,71.097,164.86
75.505,330.1,71.165,165.02
74.613,329.23,71.264,165.25
73.477,328.56,71.549,165.91
72.877,328.27,71.849,166.61
72.49,327.87,71.874,166.67
71.961,327.31,72.053,167.08
71.671,326.97,72.291,167.63
71.169,326.44,72.544,168.22
71.294,325.74,72.82,168.86
71.338,325.4,72.814,168.84
71.067,324.85,72.867,168.97
70.989,324.77,72.818,168.85
70.807,324.61,72.742,168.68
70.238,323.83,72.793,168.8
69.98,323.39,72.945,169.15
70.302,323.4,73.03,169.34
69.573,322.93,72.961,169.19
69.614,322.38,73.134,169.59
70.046,322.81,73.021,169.32
69.603,322.06,73.086,169.47
70.038,322.58,72.932,169.12
71.011,323.58,72.785,168.78
71.187,322.63,73.011,169.3
72.326,322.51,73.065,169.43
73.102,322.45,73.239,169.83
74.703,323.47,72.914,169.08
75.977,324.5,72.634,168.43
78.008,325.41,72.561,168.26
79.69,327.04,72.587,168.32
81.666,329.26,72.095,167.18
82.919,331.39,71.389,165.54
84.817,333.94,70.788,164.15
85.304,335.68,69.966,162.24
86.586,336.19,68.977,159.95
88.134,336.91,68.335,158.46
88.408,335.79,68.714,159.34
87.089,333.13,69.554,161.28
87.317,328.25,70.754,164.07
88.704,324.62,72.23,167.49
89.513,320.96,74.023,171.65
90.041,317.59,75.379,174.79
89.603,316.33,76.222,176.75
87.858,316.28,76.731,177.93
88.639,316.37,76.921,178.37
88.187,313.72,78.155,181.23
91.508,313.42,78.761,182.63
94.813,315.01,78.33,181.64
101.36,318.03,77.716,180.21
116.86,319.06,77.138,178.87
115.27,320.44,76.495,177.38
119.05,319.81,76.053,176.36
116.09,320.59,75.471,175
120.68,319.2,75.425,174.9
119.08,318.28,75.866,175.92
120.43,318.69,75.88,175.95
119.51,318.88,75.964,176.15
118.86,318.53,76.147,176.57
118.79,318.59,76.27,176.86
118.62,318.59,76.441,177.25
118.32,319.57,75.943,176.1
116.74,320.06,75.775,175.71
115.32,321.03,75.499,175.07
112.48,321.54,75.125,174.2
110.69,322.01,74.691,173.2
109.25,322.57,74.601,172.99
106.86,323.19,74.115,171.86
105.48,324.15,73.878,171.31
102.23,323.76,73.945,171.47
100.5,323.97,73.723,170.95
99.543,324.88,73.279,169.92
97.221,324.62,73.216,169.78
95.391,324.96,73.247,169.85
93.919,325.09,73.149,169.62
93.344,324.94,73.1,169.51
91.684,324.55,73.228,169.8
90.55,324.39,73.439,170.29
88.909,324.24,73.728,170.96
87.27,325.1,73.43,170.27
86.025,325.3,73.328,170.04
83.515,324.69,73.332,170.04
81.789,324.71,73.292,169.95
78.538,324.91,73.247,169.85
75.656,325.72,73.099,169.5
73.189,325.12,73.191,169.72
69.384,326.25,73.401,170.21
66.007,325.87,73.703,170.91
62.126,326.17,73.656,170.8
57.652,326.03,73.689,170.87
54.675,326.12,73.977,171.54
52.268,325.47,74.138,171.91
50.645,324.64,74.519,172.8
46.628,323.77,74.774,173.39
40.951,323.91,74.814,173.48
38.165,323.72,74.932,173.75
34.84,324.48,75.02,173.96
30.856,324.62,74.795,173.44
27.205,324.62,74.755,173.34
22.158,324.78,74.585,172.95
18.216,324.39,74.536,172.84
13.513,324.33,74.409,172.54
11.137,325.18,74.361,172.43
7.7967,325.09,74.587,172.95
4.0233,324.59,74.828,173.51
2.3083,323.43,74.87,173.61
0.08979,323.62,74.981,173.87
-1.6676,323.67,75.013,173.94
-3.7059,323.66,74.936,173.76
-6.0973,323.96,74.964,173.83
-7.7036,323.96,74.95,173.8
-9.297,323.89,75.009,173.93
-10.465,323.38,75.026,173.97
-11.624,323.38,75.109,174.17
-13.293,323.3,75.022,173.97
-13.97,323.22,75.389,174.81
-14.549,322.87,75.424,174.9
-15.475,322.69,75.667,175.46
-16.961,323.06,75.785,175.73
-17.447,322.62,75.999,176.23
-18.874,323.07,76.233,176.77
-18.747,323.17,76.4,177.16
-19.075,323.01,76.569,177.55
-19.982,322.67,76.914,178.35
-20.818,323.01,76.848,178.2
-21.869,323.37,76.813,178.12
-22.912,323.3,76.817,178.13
-24.316,323.62,77.043,178.65
-24.493,323.62,77.29,179.22
-25.802,323.27,77.479,179.66
-25.892,322.94,77.657,180.07
-25.811,322.86,77.61,179.97
-25.91,322.79,77.644,180.05
-26.263,322.69,77.669,180.1
-26.117,322.9,77.527,179.77
-26.129,322.78,77.523,179.76
-26.039,322.56,77.595,179.93
-25.977,322.57,77.573,179.88
-26.053,322.81,77.453,179.6
-26.015,322.88,77.341,179.34
-25.885,323.12,77.222,179.07
-25.731,323.37,76.826,178.15
-25.353,323.49,76.612,177.65
-25.06,323.39,76.639,177.71
-25.44,323.29,76.701,177.86
-25.059,323.21,76.631,177.7
-25.272,323.16,76.709,177.88
-25.244,323.25,76.663,177.77
-25.154,323.3,76.7,177.85
-25.422,323.28,76.686,177.82
-25.084,323.2,76.635,177.71
-25.342,323.4,76.65,177.74
-25.155,323.3,76.637,177.71
-25.394,323.4,76.641,177.72
-25.637,323.19,76.657,177.76
-25.585,323.16,76.686,177.82
-25.542,323.18,76.625,177.68
-25.733,323,76.67,177.79
-25.656,322.76,76.728,177.92
-25.572,322.93,76.615,177.66
-25.667,322.89,76.509,177.41
-25.524,323.06,76.408,177.18
-25.445,322.94,76.383,177.12
-25.497,323.12,76.31,176.95
-25.81,322.6,76.564,177.54
-25.591,323.07,76.302,176.93
-25.92,322.51,76.515,177.43
-25.521,322.83,76.406,177.17
-25.605,322.49,76.471,177.32
-25.775,322.58,76.536,177.48
-25.927,322.47,76.615,177.66
-25.854,322.36,76.597,177.62
-26.246,322.17,76.571,177.56
-26.23,322.2,76.665,177.77
-26.577,322.23,76.758,177.99
-26.7,322.59,76.683,177.81
-26.708,322.32,76.668,177.78
-26.658,322.3,76.633,177.7
-26.676,322,76.722,177.91
-26.808,322.04,76.732,177.93
-26.587,322.32,76.835,178.17
-27.042,321.99,76.987,178.52
-27.463,321.38,77.164,178.93
-27.602,321.22,77.021,178.6
-27.51,320.89,76.84,178.18
-27.69,320.69,76.589,177.6
-27.887,320.67,76.382,177.12
-27.596,321.05,76.254,176.82
-28.545,321.26,76.54,177.48
-29.599,321.65,76.647,177.73
-30.62,321.94,76.273,176.86
-31.058,322.55,76.043,176.33
-31.375,322.39,76.054,176.36
-32.051,322.91,76.04,176.32
-31.865,323.26,75.982,176.19
-30.093,322.97,76.243,176.8
-27.449,323.89,76.131,176.53
-25.784,327.09,75.295,174.6
-26.227,328.11,75.547,175.18
-27.671,326.54,76.111,176.49
-28.053,325.81,76.179,176.65
-27.427,325.75,75.876,175.95
-27.328,325.07,75.776,175.71
-26.972,324.32,75.908,176.02
-26.568,324.39,75.965,176.15
-25.014,324.73,75.403,174.85
-24.116,325.56,75.121,174.19
-23.778,326.02,74.959,173.82
-22.106,326.79,75.185,174.34
-22.168,325.85,75.053,174.04
-21.918,326.05,74.885,173.65
-21.15,325.51,74.812,173.48
-19.266,325.47,74.535,172.84
-20.484,325.38,74.061,171.74
-19.156,326.23,74.52,172.8
-18.466,324.64,73.274,169.91
-16.67,326.46,73.567,170.59
-16.093,326.62,73.704,170.91
-17.319,325.86,73.428,170.27
-17.145,325.47,72.845,168.92
-16.376,325.43,72.488,168.09
-15.057,327.11,73.694,170.89
-16.33,326.09,73.85,171.25
-14.883,326.19,74.137,171.91
-14.713,326.27,74.259,172.19
-15.442,326.33,74.28,172.24
-15.537,326.58,74.239,172.15
-15.607,326.42,74.24,172.15
-14.198,326.52,74.28,172.24
-13.465,325.02,74.092,171.81
-12.94,325.5,74.304,172.3
-10.594,326.18,74.329,172.36
-5.9742,324.81,74.309,172.31
-2.8348,325.5,75.05,174.03
0.18449,326.51,75.811,175.79
2.1791,325.7,75.899,176
2.751,324.57,75.344,174.71
3.4076,324.97,75.111,174.17
4.4859,325.57,75.201,174.38
5.7629,326.11,75.877,175.95
7.9589,325.17,75.885,175.97
7.9519,324.69,75.585,175.27
9.1239,324.97,75.391,174.82
8.3012,325.07,75.666,175.46
9.8009,324.76,75.602,175.31
10.868,324.71,75.53,175.14
11.155,325.18,75.689,175.51
12.076,324.64,75.722,175.59
13.615,324.02,75.784,175.73
15.496,323.59,75.983,176.19
17.587,323.29,75.86,175.91
20.359,323.28,75.644,175.41
21.544,323.49,75.406,174.85
22.024,323.77,75.303,174.62
23.503,324.09,75.234,174.46
24.734,323.78,75.123,174.2
27.686,324.75,75.042,174.01
30.672,325.4,75.349,174.72
32.212,325.68,75.624,175.36
34.445,325.72,75.758,175.67
36.293,325.63,75.784,175.73
38.977,325.55,75.816,175.81
41.04,325.91,75.858,175.9
42.069,325.63,75.928,176.06
42.811,324.74,75.915,176.03
44.881,324.84,75.739,175.63
45.857,325.05,75.605,175.32
48.165,324.74,75.426,174.9
49.078,325.14,75.57,175.24
51.219,326.03,75.327,174.67
51.857,326.16,75.052,174.03
55.976,325.51,75.173,174.31
57.528,324.77,75.581,175.26
60.841,323.91,75.76,175.68
62.898,324.15,75.807,175.78
66.704,324.22,75.79,175.74
69.017,324.05,76.01,176.25
71.328,324.12,75.956,176.13
72.134,324.29,76.07,176.4
73.427,324.71,75.961,176.14
76.141,326.28,75.609,175.32
77.47,326.72,75.723,175.59
78.71,326.98,76.135,176.55
80.681,326.12,76.594,177.61
81.518,325.48,76.555,177.52
85.238,324.65,76.67,177.78
87.254,323.83,76.762,178
88.926,323.37,77.021,178.6
89.727,322.51,77.37,179.41
90.436,322.05,77.764,180.32
91.445,321.17,78.07,181.03
92.577,320.1,78.64,182.35
94.208,318.94,79.12,183.47
93.131,317.57,79.636,184.66
94.508,318.19,79.622,184.63
95.462,318.37,79.595,184.57
96.377,318.99,79.483,184.31
97.002,318.68,79.535,184.43
97.266,318.78,79.431,184.19
97.512,317.5,79.872,185.21
97.526,317.32,80.217,186.01
97.618,318.23,79.987,185.48
96.753,316.9,80.354,186.33
97.278,318.02,80.041,185.6
96.185,317.07,80.55,186.78
96.536,316.94,80.523,186.72
96.385,317.54,80.389,186.41
96.776,316.63,80.528,186.73
94.992,316.35,80.696,187.12
94.674,316.08,80.681,187.09
93.84,315.51,80.732,187.2
92.934,315.39,80.657,187.03
91.671,315.81,80.679,187.08
89.941,315.06,80.712,187.16
88.767,315.18,80.999,187.82
86.311,315.42,80.928,187.66
83.122,315.28,81.003,187.83
83.306,317.66,80.283,186.16
81.493,317.06,80.196,185.96
80.408,317.32,80.194,185.96
79.131,318.07,79.885,185.24
76.814,319.2,79.561,184.49
76.129,320.26,78.771,182.66
73.843,320.05,78.626,182.32
72.936,318.75,79.026,183.25
72.426,318.02,79.392,184.1
70.9,317.7,79.147,183.53
70.464,318.58,79.245,183.76
70.354,318.27,79.328,183.95
67.845,319.3,79.059,183.33
66.934,319.38,78.858,182.86
63.48,321.06,78.435,181.88
62.648,320.11,78.152,181.22
61.859,320.95,77.894,180.62
60.303,321,77.454,179.6
59.069,321.61,77.128,178.85
56.937,322.59,77.009,178.57
55.268,320.75,77.406,179.49
54.068,319.69,77.984,180.83
51.797,319.02,78.259,181.47
50.277,319.3,78.579,182.21
48.376,317.07,79.399,184.11
46.008,316.61,79.466,184.27
45.44,316.54,79.668,184.74
43.637,316.07,79.817,185.08
42.374,316.17,79.834,185.12
41.003,317.24,79.574,184.52
39.009,318.2,79.471,184.28
37.748,319.32,78.977,183.13
37.403,320.11,78.91,182.98
36.471,320.44,78.741,182.59
36.907,319.71,79.128,183.49
36.202,319.62,79.187,183.62
36.853,320.73,78.938,183.05
36.995,320.76,78.666,182.41
38.164,320.73,78.665,182.41
39.105,321.04,78.434,181.87
39.631,320.13,78.588,182.23
40.679,320.47,78.574,182.2
41.754,320.34,78.583,182.22
42.349,320.1,78.603,182.27
44.452,320.58,78.522,182.08
45.195,320.14,78.397,181.79
46.388,320.05,78.552,182.15
47.82,321.23,78.587,182.23
48.472,320.81,79.127,183.48
49.651,319.78,78.804,182.73
50.257,319.55,78.751,182.61
50.966,319.54,78.612,182.29
51.481,319.29,78.777,182.67
52.101,318.99,79.009,183.21
52.545,318.75,79.148,183.53
53.466,319.14,79.27,183.81
53.226,319.83,79.256,183.78
52.942,319.67,79.391,184.1
52.274,318.86,79.357,184.02
51.732,318.41,79.339,183.97
50.859,318.79,79.055,183.32
49.485,319.48,78.677,182.44
48.104,320.54,78.485,181.99
45.791,320.24,78.469,181.96
45.14,321.44,78.291,181.54
44.315,321.58,78.379,181.75
40.645,322.75,78.807,182.74
37.538,322.02,80.045,185.61
38.437,321.57,80.433,186.51
41.532,320.74,80.848,187.47
56.031,318.7,80.456,186.56
64.846,317.96,79.992,185.49
72.118,317.12,80.233,186.05
23.245,325.07,79.26,183.79
23.088,326.52,79.062,183.33
23.177,326.62,78.682,182.45
23.419,326.88,78.608,182.28
22.668,325.92,78.098,181.1
21.683,327.38,77.905,180.65
19.981,325.57,77.604,179.95
20.379,324.8,77.423,179.53
19.719,325.26,77.299,179.24
15.796,327.55,77.074,178.72
11.88,326.59,77.24,179.11
10.005,329.48,77.2,179.01
7.1385,329.66,77.462,179.62
3.314,327.2,77.845,180.51
1.4811,326.26,77.754,180.3
-0.89045,324.86,76.966,178.47
-4.051,324.56,76.904,178.33
-5.2858,324.73,76.801,178.09
45.582,321.63,77.234,179.09
58.045,317.63,76.968,178.48
59.327,322.09,77.371,179.41
50.536,319.04,78.05,180.98
48.037,320.25,78.275,181.51
44.435,320.15,78.193,181.32
44.39,320.16,78.123,181.16
48.097,320.72,78.262,181.48
47.582,320.59,78.205,181.34
61.068,321.88,79.481,184.3
66.954,319.35,79.223,183.7
68.282,317.87,79.542,184.44
69.966,317.82,79.28,183.84
78.926,318.18,79.247,183.76
79.061,316.74,79.748,184.92
78.038,315.31,80.239,186.06
79.461,314.27,80.371,186.37
35.592,318.25,79.539,184.44
37.557,320.46,78.567,182.18
39.496,321.6,77.873,180.57
87.324,315.81,77.83,180.48
89.271,322.37,78.07,181.03
84.594,318.39,78.173,181.27
85.76,320.77,78.356,181.7
80.132,322.12,78.227,181.4
52.674,318.91,77.851,180.52
81.936,321.3,77.729,180.24
78.69,322.83,77.7,180.17
79.481,322.63,77.919,180.68
84.492,323.12,77.999,180.87
84.295,320.01,78.394,181.78
82.982,319.82,78.427,181.86
82.685,319.21,78.516,182.07
84.284,317.8,78.901,182.96
84.716,316.96,79.244,183.75
85.286,316.54,79.493,184.33
87.452,315.73,79.948,185.39
93.196,314.48,80.192,185.95
89.221,314.04,80.295,186.19
85.959,314.81,80.159,185.88
88.042,314.84,80.141,185.83
87.388,314.04,80.283,186.16
87.272,314.87,80.027,185.57
86.411,315.17,79.999,185.5
86.54,315.57,79.971,185.44
87.238,315.81,79.92,185.32
87.72,315.44,79.759,184.95
87.651,319.19,78.738,182.58
84.447,320.04,77.745,180.28
85.219,320.86,77.281,179.2
83.776,322.82,77.246,179.12
83.284,322.89,77.742,180.27
83.732,322.11,78.309,181.59
83.335,321.7,77.956,180.77
83.731,322.07,78.133,181.18
86.437,322.07,78.292,181.55
88.3,321.51,78.344,181.67
89.055,321.08,78.357,181.7
88.047,320.33,77.946,180.74
88.11,320.14,77.623,180
88.873,319.1,77.629,180.01
89.32,319.23,77.613,179.97
88.996,320.1,77.223,179.07
90.152,320.21,77.015,178.58
91.012,321.24,76.825,178.14
90.477,323.17,76.276,176.87
89.625,323.14,76.253,176.82
89.158,324.32,75.841,175.86
87.285,325.75,75.648,175.41
87.125,326.13,75.331,174.68
87.005,325.62,75.504,175.08
86.054,325.19,75.52,175.12
86.239,325.32,75.689,175.51
87.479,324.9,75.672,175.47
88.212,323.48,75.869,175.93
87.795,322.95,76.353,177.05
87.191,322.41,76.354,177.05
87.13,322.57,76.427,177.22
87.186,322.28,76.524,177.45
87.551,322.13,76.692,177.84
87.306,321.86,76.664,177.77
87.233,321.66,76.708,177.87
87.283,321.53,76.821,178.14
87.665,321.81,76.803,178.09
88.074,321.76,76.797,178.08
87.648,321.79,76.819,178.13
87.673,321.63,76.913,178.35
87.323,320.43,77.555,179.84
87.496,320.03,77.767,180.33
87.499,317.73,78.93,183.03
87.547,317.05,79.304,183.89
87.172,315.27,80.221,186.02
86.874,315.67,80.073,185.68
86.982,314.99,80.558,186.8
86.181,314.71,80.793,187.35
86.933,315.39,80.515,186.7
86.514,316.04,80.331,186.28
86.348,316.55,79.892,185.26
87.244,317.97,79.112,183.45
86.772,319.03,78.364,181.71
87.034,320.9,77.599,179.94
87.077,321.31,77.171,178.95
87.222,322.26,76.736,177.94
88.008,323.99,76.012,176.26
88.766,324.47,75.33,174.68
90.71,326.09,74.357,172.42
92.554,327.5,73.263,169.88
91.803,325.61,73.668,170.83
91.993,324.58,74.094,171.81
93.097,323.41,74.132,171.9
94.005,322.87,74.378,172.47
94.209,324.5,74.607,173
92.885,324.79,74.569,172.91
88.494,325.43,74.609,173.01
88.61,323.61,75.67,175.47
88.109,323.09,75.956,176.13
88.339,322.72,76.024,176.29
87.501,321.18,76.952,178.44
88.69,322.1,76.315,176.96
91.359,321.86,76.318,176.97
93.209,321.54,76.405,177.17
95.166,323,76.254,176.82
98.047,324.51,75.541,175.17
96.274,321.86,76.077,176.41
88.948,320.69,76.674,177.8
91.271,322.18,76.401,177.16
91.809,321.4,76.674,177.8
94.073,322.29,76.446,177.27
95.762,322.84,76.506,177.4
93.97,322.01,76.679,177.81
94.462,321.06,77.121,178.83
93.633,320.98,77.576,179.89
93.039,320.83,77.835,180.49
91.815,321.22,77.754,180.3
90.928,321.5,77.492,179.69
90.105,321.98,77.441,179.57
89.908,321.73,77.638,180.03
89.775,321.26,77.814,180.44
89.657,321.58,77.747,180.28
89.923,321.87,77.728,180.24
89.379,321.68,77.663,180.09
89.45,321.8,77.514,179.74
89.042,321.85,77.425,179.54
89.384,321.94,77.399,179.48
88.948,321.96,77.282,179.2
89.275,322.05,77.191,178.99
89.021,321.46,77.467,179.63
89.129,321.51,77.606,179.95
88.837,321.99,77.228,179.08
88.942,322.03,77.25,179.13
88.803,321.51,77.551,179.83
88.742,322.02,77.277,179.19
88.878,321.86,77.167,178.94
88.882,321.73,77.212,179.04
88.583,321.96,77.206,179.03
88.741,322.12,77.088,178.75
88.826,321.95,77.109,178.8
88.724,322.42,76.871,178.25
88.66,322.49,76.774,178.03
88.484,321.88,77.125,178.84
87.957,321.8,77.331,179.32
88.193,322.2,77.043,178.65
88.803,322.79,76.837,178.17
88.323,322.57,76.787,178.06
88.552,322.9,76.727,177.92
88.611,322.7,76.656,177.75
88.384,322.94,76.58,177.58
88.05,322.41,76.734,177.93
88.488,323.06,76.672,177.79
87.91,323.21,76.481,177.35
88.158,322.99,76.378,177.11
88.252,323.09,76.282,176.89
87.535,322.36,76.74,177.95
88.06,323.21,76.602,177.63
87.545,322.74,76.582,177.58
87.302,322.07,76.973,178.49
87.76,322.59,76.807,178.1
87.712,322.6,76.745,177.96
87.937,322.94,76.673,177.79
87.864,322.81,76.625,177.68
87.721,322.54,76.735,177.94
88.006,322.64,76.799,178.08
87.166,321.8,77.347,179.36
86.63,322.7,76.847,178.2
86.047,322.57,76.832,178.16
85.525,323.03,76.604,177.63
84.766,322.13,77.059,178.69
85.136,322.9,76.545,177.5
84.462,322.37,76.955,178.45
84.616,322.79,76.693,177.84
85.562,322.96,76.56,177.53
85.893,323.01,76.622,177.67
85.754,322.17,76.943,178.42
85.57,321.9,77.11,178.81
87.494,321.84,77.036,178.63
88.944,322.98,76.433,177.24
89.142,322.7,76.593,177.61
88.175,321.97,76.791,178.07
89.069,321.95,76.552,177.51
89.043,320.76,76.98,178.5
87.881,320.44,77.629,180.01
89.094,320.21,77.604,179.95
89.339,320.46,77.563,179.86
89.184,320.48,77.557,179.84
88.692,320.31,77.644,180.04
88.687,320.16,77.643,180.04
87.933,320.12,77.78,180.36
87.56,320.94,77.444,179.58
86.621,320.34,77.685,180.14
86.087,320.88,77.354,179.37
85.768,321.36,76.996,178.54
86.134,321.73,76.83,178.16
86.996,321.58,76.706,177.87
86.763,321.76,76.761,178
86.618,319.53,77.814,180.44
86.641,319.03,78.052,180.99
86.925,319.52,78.004,180.88
86.526,319.58,78.163,181.25
84.397,319.63,78.024,180.92
84.122,319.87,78.164,181.25
