443.5,332.5,18,32
444,331.02,18.004,32.007
443.97,330.99,18.004,32.008
443.93,330.93,18.025,32.044
443.91,330.92,18.027,32.049
443.92,330.88,18.046,32.082
443.89,330.85,18.064,32.114
444.17,331.13,18.085,32.151
444.18,331.14,18.079,32.14
444.18,331.15,18.074,32.131
444.18,331.16,18.076,32.135
444.18,331.15,18.076,32.135
444.17,331.15,18.074,32.131
444.15,331.13,18.098,32.175
444.18,331.14,18.099,32.175
444.12,331.12,18.092,32.164
444.08,331.13,18.068,32.121
444.01,331.08,18.034,32.061
443.75,330.82,17.997,31.995
443.54,330.63,17.995,31.992
443.34,330.44,18.126,32.224
443.62,330.71,18.201,32.358
443.5,330.5,18.233,32.414
443.21,330.13,18.184,32.327
443.29,329.99,18.27,32.481
442.89,329.51,18.27,32.48
442.84,329.04,18.344,32.611
442.54,328.47,18.241,32.428
442.85,328.46,18.198,32.352
443.07,328.02,18.176,32.313
442.96,327.3,18.249,32.442
442.82,326.57,18.248,32.441
442.89,326.37,18.145,32.257
443.19,325.93,18.187,32.332
443.24,325.46,18.225,32.399
443.41,325.26,18.066,32.118
443.34,324.68,18.155,32.275
443.88,324.07,18.203,32.361
444.14,323.27,18.135,32.239
444.48,322.95,18.109,32.194
444.41,321.75,18.106,32.189
444.98,321.06,18.075,32.133
445.27,320.59,18.094,32.167
445.69,320.29,18.043,32.076
445.67,319.75,18.116,32.207
446.71,319.42,18.063,32.111
447.42,319.5,17.908,31.837
448.3,319.6,17.959,31.927
449.16,319.11,17.871,31.771
450.77,319.31,17.983,31.97
451.6,318.78,17.965,31.939
453.03,318.7,18.018,32.031
454.39,318.95,17.88,31.787
455.79,319.15,17.9,31.823
456.97,318.89,17.983,31.97
457.79,318.35,18.028,32.05
458.83,318.29,18.043,32.077
459.62,318.25,18.021,32.037
460.4,318.31,18,32
461.26,318.43,18.031,32.055
462.55,318.36,18.067,32.12
464.01,318.45,18.16,32.285
465.6,319.08,18.102,32.181
466.49,318.55,18.116,32.207
467.58,318.24,18.126,32.224
468.93,318.26,18.104,32.185
470.07,317.62,18.114,32.203
471.39,317.59,18.147,32.262
472.46,317.98,18.195,32.346
473.71,317.63,18.205,32.364
475.19,317.62,18.266,32.473
476.79,317.71,18.202,32.359
478.81,318.29,18.177,32.315
480.62,318.29,18.177,32.315
482.12,318.31,18.245,32.435
483.68,318.44,18.204,32.363
485.81,318.47,18.207,32.368
487.62,318.25,18.143,32.255
489.07,317.89,18.076,32.135
490.06,317.62,18.085,32.15
491.24,317.39,18.018,32.032
492.56,317.27,18.005,32.008
494.24,317.13,17.999,31.998
495.33,317.26,18.036,32.063
496.5,317.1,18.079,32.14
498.15,317.48,18.119,32.211
499.9,317.48,18.168,32.298
502.03,317.85,18.173,32.307
503.28,317.91,18.187,32.332
504.66,317.87,18.212,32.376
506,317.49,18.23,32.408
507.6,317.35,18.163,32.289
509.06,317.38,18.123,32.218
510.32,317.29,18.122,32.216
511.82,317.27,18.081,32.143
512.93,316.83,18.096,32.17
514.64,317.04,18.129,32.23
516.85,317.44,18.298,32.53
518.16,317.27,18.429,32.762
519.89,317.21,18.473,32.841
521.49,317.11,18.486,32.864
523.47,317.18,18.571,33.016
525.66,317.15,18.542,32.963
526.99,317.01,18.391,32.695
527.84,316.62,18.294,32.523
529.42,316.94,18.193,32.344
531.16,317.16,18.131,32.232
532.64,317.23,18.091,32.162
533.51,317.04,18.056,32.1
534.75,317.1,18.036,32.063
536.28,317.29,17.979,31.963
537.6,317.27,18.26,32.463
539.41,317.69,18.349,32.62
540.33,317.4,18.437,32.777
542.03,317.74,18.47,32.836
543.47,317.68,18.474,32.842
544.97,317.73,18.473,32.842
546.66,317.51,18.403,32.716
547.89,317.35,18.366,32.651
549.35,317.37,18.343,32.61
551.04,317.48,18.372,32.661
552.99,317.87,18.344,32.611
555.09,317.95,18.291,32.518
557.55,318.26,18.225,32.401
559.86,318.55,18.378,32.672
561.29,318.22,18.309,32.548
563.18,318.44,18.452,32.803
564.84,318.47,18.578,33.028
566.06,318.62,18.781,33.388
567.71,318.54,18.757,33.346
569.2,318.73,18.77,33.368
570.44,319.09,19.054,33.873
571.57,319.23,19.373,34.442
573.18,319.19,20.021,35.592
574.37,318.82,20.441,36.34
574.76,319.14,21.153,37.606
576.45,318.95,21.506,38.233
578.8,318.56,21.734,38.638
580.11,318.32,21.835,38.818
580.35,318.86,21.931,38.988
580.42,318.93,22.375,39.777
581.6,319.17,22.698,40.352
581.49,319.35,23.307,41.435
582.62,319.42,23.668,42.077
583.3,319.31,24.317,43.23
584.25,319.04,24.685,43.885
585.36,318.8,24.913,44.29
586.32,318.43,24.571,43.682
587.75,318.69,24.37,43.324
589.02,318.66,24.667,43.853
589.07,318.41,24.855,44.187
591.44,319,24.892,44.253
593.01,318.6,24.866,44.207
595.37,318.83,24.84,44.159
597.32,318.6,24.8,44.089
598.39,318.57,24.454,43.474
600.02,318.91,24.167,42.964
600.45,319.08,24.032,42.724
601.52,319.64,24.25,43.111
601.44,319.91,24.824,44.131
601.15,319.9,25.04,44.516
602,319.79,25.558,45.436
602.43,319.46,25.506,45.345
604.49,319.29,25.475,45.289
604.76,319.52,25.427,45.204
607.22,319.53,25.346,45.059
609.14,319.14,25.224,44.843
608.72,319.11,24.765,44.026
609.85,319.99,24.72,43.946
610.42,319.57,24.73,43.965
610.58,319.5,24.775,44.044
611.44,319.81,24.807,44.1
611.04,318.88,24.657,43.835
611.9,319.29,24.52,43.591
612.23,319.16,24.484,43.526
612.11,319.34,24.456,43.478
612.44,319.26,24.486,43.531
612.33,319.47,24.841,44.161
612.4,319.37,25.003,44.449
612.99,319.64,25.094,44.612
612.97,319.68,25.129,44.675
613.32,320.01,25.139,44.691
613.37,319.97,25.158,44.726
613,319.59,25.146,44.704
613.23,320.28,25.329,45.03
613.3,320.15,25.521,45.37
613.36,319.63,25.733,45.748
614.08,320.75,25.631,45.566
613.51,320.54,25.822,45.906
614.25,321.38,25.824,45.909
614.28,321.47,25.838,45.934
614.15,321.13,25.856,45.966
614.35,321.39,25.725,45.734
614.94,322.52,25.159,44.727
614.39,323.17,24.821,44.126
614.38,323.9,24.601,43.735
614.62,324.27,24.388,43.356
615.3,325.09,24.153,42.938
614.79,325.29,23.942,42.564
615.38,325.76,23.773,42.264
615.13,325.44,23.592,41.941
615.8,326.22,23.379,41.562
615.79,326.39,23.264,41.358
616.12,326.71,23.155,41.164
615.9,326.31,23.019,40.923
616.13,326.73,22.844,40.611
616.24,327.34,22.678,40.316
616.55,327.25,22.557,40.102
616.85,327.9,22.41,39.839
616.6,327.69,22.32,39.68
616.96,327.69,22.255,39.564
617.52,328.44,22.134,39.35
617.61,328.58,22.01,39.129
617.87,328.99,21.929,38.985
617.92,328.99,22.007,39.124
617.99,328.97,22.061,39.22
617.82,329.21,22.094,39.277
618.13,329.44,22.125,39.333
618.26,329.47,22.159,39.394
618.44,329.49,22.183,39.437
618.4,329.58,22.163,39.401
618.45,329.64,22.225,39.511
618.67,329.78,22.444,39.901
618.26,329.26,22.39,39.804
618.34,329.36,22.347,39.729
618.62,329.51,22.36,39.751
618.61,329.57,22.517,40.031
618.65,329.51,22.609,40.193
618.86,329.86,22.702,40.358
618.6,329.38,22.815,40.56
618.49,329.6,22.871,40.66
618.49,329.53,22.893,40.699
618.49,329.47,22.912,40.732
618.85,329.7,22.921,40.748
618.86,329.68,22.91,40.729
618.88,329.59,22.917,40.742
618.94,329.63,22.945,40.791
618.88,329.72,22.925,40.755
618.93,329.72,22.931,40.766
619.01,329.72,22.927,40.758
619,329.6,22.993,40.876
618.8,329.46,23.012,40.91
618.89,329.4,23.041,40.961
618.97,329.35,23.038,40.956
618.88,329.41,23.041,40.962
618.98,329.37,23.036,40.952
618.95,329.39,23.075,41.023
618.85,328.99,23.145,41.146
618.81,328.91,23.199,41.243
618.91,329.17,23.306,41.434
619.12,329.29,23.423,41.641
618.71,329.08,23.223,41.286
618.98,329.28,23.314,41.448
619.15,329.45,23.388,41.578
618.97,329.28,23.341,41.494
619.13,329.47,23.399,41.599
619.07,329.36,23.327,41.47
619.27,329.58,23.342,41.496
619.29,329.6,23.359,41.527
619.09,329.39,23.374,41.554
619.11,329.38,23.398,41.596
619.09,329.39,23.355,41.521
619.14,329.36,23.358,41.525
619.14,329.37,23.366,41.539
619.16,329.37,23.382,41.569
619.22,329.49,23.31,41.441
619.41,329.73,23.3,41.422
619.51,329.59,23.539,41.847
619.32,329.4,23.519,41.812
618.94,329.19,23.469,41.722
619.09,329.23,23.416,41.629
619.09,329.36,23.359,41.528
619.39,329.59,23.342,41.498
619.49,329.56,23.629,42.007
619.48,329.52,23.745,42.213
619.19,329.35,23.625,42.001
619.49,329.51,23.67,42.081
619.46,329.47,23.715,42.161
619.28,329.4,23.591,41.94
619.54,329.5,23.669,42.078
619.52,329.55,23.711,42.153
619.33,329.37,23.609,41.972
619.56,329.61,23.653,42.051
619.57,329.65,23.649,42.043
619.55,329.68,23.691,42.117
619.57,329.58,23.708,42.148
619.42,329.43,23.554,41.873
619.46,329.49,23.504,41.785
619.29,329.27,23.444,41.679
619.32,329.36,23.4,41.599
619.63,329.63,23.321,41.46
619.82,329.68,23.544,41.856
619.55,329.52,23.54,41.849
619.57,329.54,23.532,41.835
619.52,329.53,23.523,41.818
619.32,329.28,23.509,41.794
619.32,329.31,23.491,41.762
619.37,329.31,23.485,41.751
619.36,329.35,23.46,41.706
619.37,329.38,23.44,41.67
619.35,329.36,23.413,41.623
619.55,329.66,23.386,41.575
619.59,329.71,23.351,41.512
619.57,329.72,23.308,41.437
619.79,329.77,23.533,41.837
619.57,329.6,23.578,41.917
619.53,329.52,23.624,41.998
619.73,329.63,23.793,42.299
619.28,329.13,23.801,42.313
619.28,329.16,23.805,42.319
619.24,329.14,23.808,42.325
619.33,329.14,23.807,42.324
619.36,329.17,23.836,42.375
619.35,329.22,23.769,42.256
619.4,329.2,23.779,42.274
619.43,329.23,23.76,42.24
619.65,329.4,23.82,42.347
619.51,329.3,23.682,42.101
620.01,329.77,23.723,42.173
619.74,329.48,23.793,42.299
619.53,329.27,23.782,42.279
619.53,329.27,23.757,42.235
619.73,329.47,23.816,42.339
619.57,329.29,23.751,42.224
619.73,329.48,23.862,42.421
619.52,329.34,23.783,42.28
619.55,329.36,23.74,42.204
619.76,329.53,23.838,42.379
619.63,329.39,23.715,42.16
619.77,329.57,23.84,42.383
619.6,329.28,23.903,42.495
619.9,329.44,23.943,42.566
620.07,329.65,23.972,42.617
620.04,329.6,24.061,42.776
620.05,329.58,24.088,42.823
619.84,329.45,24.096,42.837
619.86,329.39,24.098,42.841
619.77,329.37,24.121,42.881
619.55,329.08,24.168,42.966
619.53,329.05,24.214,43.048
619.52,329.06,24.226,43.069
619.67,329.07,24.265,43.138
619.93,329.27,24.309,43.216
620.12,329.49,24.303,43.206
620.21,329.56,24.282,43.168
620.22,329.53,24.297,43.194
620.19,329.5,24.319,43.234
620.17,329.49,24.333,43.258
620.27,329.51,24.325,43.245
620.26,329.52,24.314,43.225
620.29,329.56,24.308,43.215
620.32,329.59,24.303,43.205
620.33,329.57,24.304,43.207
620.32,329.61,24.294,43.189
620.29,329.57,24.316,43.228
620.31,329.65,24.328,43.25
620.42,329.62,24.361,43.309
620.37,329.61,24.392,43.363
620.37,329.55,24.442,43.453
620.05,329.37,24.439,43.447
620.02,329.38,24.435,43.441
619.96,329.4,24.479,43.519
619.8,329.12,24.493,43.544
619.74,328.95,24.559,43.66
619.85,328.92,24.572,43.684
619.72,328.89,24.61,43.75
619.94,329.09,24.643,43.81
620.16,329.32,24.639,43.802
620.2,329.47,24.593,43.721
619.7,328.92,24.647,43.817
620.09,329.32,24.677,43.87
619.87,329.42,24.668,43.855
619.94,329.47,24.646,43.814
619.8,329.42,24.672,43.861
619.72,329.4,24.667,43.852
619.46,329.43,24.665,43.849
619.41,329.47,24.681,43.878
619.3,329.43,24.671,43.859
619.24,329.47,24.642,43.807
619.06,329.48,24.595,43.724
618.55,329.07,24.485,43.528
618.41,328.97,24.439,43.447
618.59,329.29,24.366,43.317
618.7,329.45,24.346,43.281
618.53,329.57,24.291,43.184
618.37,329.62,24.305,43.209
618.23,329.62,24.231,43.078
617.49,329.07,24.174,42.976
617.46,329.27,23.74,42.204
617.5,329.41,23.707,42.145
617.54,329.18,23.821,42.349
616.84,328.57,23.532,41.834
616.94,328.55,23.462,41.71
616.45,327.65,23.493,41.766
616.29,327.23,23.429,41.651
615.81,326.77,23.335,41.485
616.02,326.44,23.385,41.573
615.76,325.54,23.361,41.531
615.71,325.05,23.347,41.505
615.85,324.52,23.375,41.555
615.44,323.45,23.415,41.626
615.49,322.81,23.482,41.746
615.18,322.44,23.403,41.605
615.44,322.13,23.36,41.528
615.73,321.27,23.431,41.655
615.36,320.82,23.558,41.88
615.92,320.35,23.8,42.31
615.45,319.57,24.142,42.92
615.2,318.78,24.509,43.572
615.45,318.32,24.639,43.803
616.18,318.37,24.737,43.977
616.15,318,24.885,44.239
615.9,317.35,24.701,43.912
616.65,317.55,24.867,44.208
616.6,316.6,24.779,44.052
617.41,316.94,24.676,43.868
617.79,317.04,24.465,43.493
618.22,316.52,24.014,42.691
618.86,317.14,23.707,42.146
619.25,316.94,23.651,42.046
618.83,317.28,23.592,41.941
619.45,316.88,23.501,41.78
618.2,316.86,23.433,41.658
618.2,317,23.357,41.524
618.28,317.01,23.36,41.529
618.62,316.98,23.362,41.533
618.61,317.08,23.331,41.478
619.14,317.33,23.289,41.402
619.01,317.37,23.261,41.352
619.18,317.46,23.207,41.256
620,317.13,22.74,40.427
620.07,316.86,22.464,39.936
621.08,316.95,22.412,39.843
620.69,316.75,22.397,39.816
621.24,316.65,22.403,39.827
621.69,316.82,22.008,39.125
622.98,316.92,21.589,38.381
623.67,316.93,21.54,38.293
624.17,317.04,21.511,38.242
623.77,317.22,21.466,38.163
624.11,317.37,21.433,38.102
624.89,317.31,21.426,38.09
625.34,317.28,21.854,38.852
626.04,316.98,22.264,39.58
626.79,317.34,22.264,39.58
626.93,317.34,22.274,39.598
626.97,317.16,22.307,39.656
627.52,316.77,22.296,39.638
627.89,316.83,22.366,39.762
628.14,316.98,21.927,38.982
627.86,316.92,22.173,39.419
628.16,316.91,22.351,39.735
627.99,316.8,22.443,39.899
627.77,316.69,22.524,40.043
628.23,316.99,22.584,40.15
628.35,317.31,22.601,40.179
628.46,317.24,22.617,40.209
628.54,317.21,22.642,40.252
628.32,316.87,22.671,40.304
628.47,316.75,22.688,40.335
628.63,316.54,22.718,40.387
629.08,316.69,22.198,39.463
628.95,316.75,22.302,39.647
629.01,316.83,21.928,38.983
629.22,317.08,21.601,38.401
629.09,316.97,21.657,38.501
629.14,317.12,21.532,38.279
628.95,316.95,22.095,39.281
628.85,316.79,22.238,39.533
628.93,316.95,22.291,39.629
628.49,316.68,22.355,39.742
628.6,316.68,22.4,39.823
628.62,316.91,21.998,39.108
628.55,316.79,22.194,39.456
628.46,316.83,22.334,39.706
628.52,316.96,21.917,38.963
628.32,317.2,21.603,38.405
628.1,316.88,21.692,38.563
627.67,316.9,21.532,38.28
627.34,316.89,22.119,39.323
626.4,316.83,22.303,39.649
625.63,316.7,22.384,39.794
625.05,317,21.939,39.003
624.71,317.32,21.541,38.294
624.09,317.08,22.046,39.193
623.44,316.82,21.653,38.493
623.14,316.93,21.456,38.144
622.76,316.91,21.538,38.29
622.43,316.95,21.571,38.349
621.47,316.62,21.602,38.403
621.13,316.6,21.609,38.417
620.7,316.59,21.647,38.483
620.19,316.71,21.648,38.486
619.68,317,21.637,38.465
619.49,316.83,21.619,38.434
619.12,316.84,21.617,38.431
618.91,316.82,21.632,38.457
618.55,316.8,21.633,38.459
618.04,316.68,21.634,38.461
617.67,316.58,21.625,38.444
617.01,316.4,21.623,38.44
616.46,316.54,21.628,38.45
616.21,316.48,21.627,38.447
615.53,316.43,21.641,38.473
615.11,316.43,21.684,38.55
614.44,316.59,21.532,38.279
614.11,316.85,21.535,38.285
613.3,317,21.525,38.267
612.34,316.89,21.484,38.194
611.57,316.62,21.468,38.165
610.99,316.69,21.413,38.068
610.33,316.59,21.429,38.095
609.82,316.7,21.416,38.074
609.17,316.74,21.424,38.087
608.78,316.76,21.4,38.045
608.29,316.76,21.38,38.01
607.91,316.76,21.386,38.019
607.46,316.76,21.372,37.995
606.95,316.98,21.38,38.009
606.74,317,21.331,37.922
606.4,317.13,21.26,37.796
606.12,317.23,21.173,37.641
605.93,317.71,21.064,37.447
605.55,317.64,20.976,37.291
605.13,317.88,20.927,37.204
604.52,317.63,21.401,38.047
604.27,317.82,21.61,38.418
603.77,317.68,21.852,38.847
603.06,317.64,22.385,39.796
602.34,317.73,22.517,40.031
602.3,318.29,22.661,40.287
601.4,318.05,23.094,41.055
600.78,318.01,23.316,41.451
600.78,318.79,23.835,42.374
599.74,318.44,24.277,43.158
599.63,318.62,24.734,43.971
599.34,318.97,25.164,44.736
598.65,318.84,25.355,45.076
599.02,320.06,25.278,44.939
598.18,319.49,25.663,45.623
598.3,320.11,25.482,45.301
598.51,320.77,25.479,45.297
598.45,321.29,25.25,44.889
598.13,321.21,25.069,44.566
598.71,322.15,24.912,44.289
598.39,321.92,24.722,43.95
598.78,322.68,24.776,44.047
598.78,322.78,24.876,44.223
598.33,322.39,24.884,44.239
598.46,322.56,24.831,44.144
598.43,322.78,24.734,43.972
598.95,323.39,24.708,43.925
599.01,323.79,24.573,43.685
598.55,323.42,24.477,43.515
598.61,323.61,24.435,43.439
599.18,324.21,24.15,42.933
599.04,324.04,24.077,42.804
599.32,324.54,23.844,42.389
599.27,324.48,23.684,42.106
599.92,325.11,23.549,41.865
599.77,325.25,23.342,41.497
600.29,325.43,23.157,41.167
599.99,325.33,22.964,40.824
600.73,326.06,22.891,40.696
600.68,326.34,22.876,40.669
600.79,326.35,22.822,40.573
600.85,326.3,22.803,40.539
600.79,326.08,22.6,40.179
601.27,326.59,22.527,40.047
601.18,326.51,22.401,39.825
601.02,326.32,22.325,39.688
601.24,326.6,22.188,39.446
601.42,326.71,22.085,39.262
601.28,326.61,21.938,39.001
601.65,326.75,21.884,38.905
602.01,327.07,21.868,38.877
601.99,327.12,21.874,38.887
601.79,327.25,21.893,38.92
601.7,327.23,21.905,38.942
601.79,327.31,21.871,38.882
601.91,327.46,21.902,38.936
602.03,327.42,21.914,38.958
601.81,327.23,21.897,38.929
602.2,327.42,21.865,38.871
602.13,327.14,21.88,38.898
602.47,327.4,21.791,38.739
602.33,327.18,21.672,38.528
602.37,327.19,21.573,38.351
602.31,327.29,21.656,38.5
602.47,327.04,21.563,38.335
602.33,326.95,21.489,38.203
602.42,327.21,21.423,38.085
602.53,327.36,21.358,37.969
602.42,326.99,21.37,37.991
602.89,327.45,21.449,38.132
603.11,327.52,21.316,37.896
603.51,327.7,21.391,38.029
603.43,327.98,21.407,38.057
603.9,327.97,21.393,38.033
605.91,328.78,21.511,38.241
601.15,331.29,21.675,38.533
603.1,330.13,21.827,38.804
603.22,330.47,22.045,39.191
603.32,328.93,22.099,39.288
604.06,327.92,22.304,39.651
605.6,328.89,22.465,39.938
609.4,329.55,22.595,40.169
607.42,327.99,22.574,40.132
607.81,327.76,22.684,40.327
608.59,327.66,22.807,40.547
608.62,327.27,22.904,40.719
609.39,327.68,22.896,40.703
609.65,328.26,22.953,40.806
610.33,329.28,22.972,40.838
610.55,329.2,23.128,41.116
611.43,328.58,23.2,41.244
611.81,328.71,23.39,41.582
612.82,328.56,23.366,41.539
615.2,328.62,23.488,41.757
614,328.35,23.409,41.616
615.63,329.45,23.534,41.838
617.69,331.06,23.78,42.275
617.74,330.38,24.016,42.695
618.91,331.13,24.246,43.104
620.06,330.78,24.276,43.157
618.85,330.41,24.301,43.202
619.24,330.53,24.39,43.36
620.41,329.59,24.329,43.251
620.93,329.88,24.285,43.173
621.62,329.44,24.267,43.142
622.3,328.85,24.071,42.793
622.88,329.34,24.017,42.696
624.34,329.64,24.113,42.867
624.43,329.22,24.102,42.848
625.14,329.09,24.089,42.826
625.93,329.67,24.067,42.787
627.1,330.04,24.081,42.81
627.24,330.25,24.161,42.954
627.51,330.62,24.213,43.045
627.99,330.89,24.204,43.029
628.64,330.92,24.189,43.002
628.77,330.62,24.172,42.972
628.15,330.14,24.146,42.925
627.28,330.18,23.846,42.393
619.08,330.99,23.806,42.322
609.67,330.73,23.879,42.452
601.29,331.05,23.847,42.395
595.15,332.09,23.96,42.595
592.22,332.87,24.266,43.139
589.97,331.86,24.436,43.442
590.06,332.17,24.628,43.783
590.55,332.5,24.628,43.784
590.75,332.36,24.962,44.377
591.26,332.45,24.76,44.018
593.12,332.32,24.657,43.835
593.09,332.29,25.102,44.626
594.17,331.98,24.946,44.348
594.5,331.54,24.766,44.029
596.26,331.76,24.456,43.477
596.96,331.88,24.317,43.231
597.96,332.08,24.61,43.75
598.35,331.62,24.767,44.03
599.39,332.39,24.756,44.011
600.26,332.32,24.995,44.435
600.7,332.56,25.039,44.513
601.34,333.03,25.023,44.486
601.76,333.14,25.326,45.025
601.93,332.76,25.613,45.535
602.24,332.57,25.387,45.133
603.71,333,25.295,44.97
604.44,332.72,25.225,44.844
604.93,332.57,25.167,44.741
605.65,332.49,25.106,44.632
606.61,332.99,25.389,45.136
608.04,333.2,25.586,45.486
609.27,333.51,25.412,45.178
610.64,334.14,25.663,45.622
611.66,334.13,25.884,46.016
612.29,334.15,25.778,45.828
613.77,334.42,26.173,46.53
614.21,334.23,26.42,46.968
615.04,334.16,26.599,47.287
615.37,333.58,26.434,46.993
616.79,333.77,26.388,46.911
617.55,333.35,26.391,46.917
618.63,333.21,26.421,46.971
619.79,333.43,26.426,46.98
620.75,333.51,26.442,47.008
621.41,333.7,26.408,46.947
622.29,333.86,26.277,46.715
623.1,334.01,26.094,46.389
624.41,334.8,26.149,46.488
625.08,335.02,26.173,46.53
625.87,335.13,26.164,46.514
626.43,335.22,26.149,46.487
627.07,335.14,26.075,46.356
627.73,335.05,26.066,46.339
628.33,335.02,26.075,46.355
629.27,334.99,26.497,47.105
630.05,334.93,26.89,47.804
630.63,334.85,26.872,47.772
631.89,335.2,26.953,47.917
632.6,335.21,26.766,47.584
633.9,335.55,27.041,48.073
634.94,335.73,26.902,47.826
635.85,335.95,26.884,47.794
636.62,335.66,27.042,48.075
637.24,335.71,26.916,47.85
638.12,335.59,27.027,48.047
639.19,335.51,26.659,47.394
639.97,335.29,26.646,47.37
640.83,335.07,26.657,47.391
641.76,335.02,26.662,47.398
642.65,335.24,26.69,47.449
643.75,335.46,26.72,47.501
644.6,335.68,27.032,48.057
645.2,335.81,26.849,47.732
646.14,336.26,27.306,48.544
646.68,336.51,26.972,47.951
647.13,336.43,27.228,48.405
648.16,336.88,27.21,48.374
648.88,336.85,27.271,48.482
649.41,336.58,27.319,48.566
650.37,336.44,27.05,48.09
651.27,336.43,27.263,48.468
652.08,336.33,27.362,48.643
652.73,336.38,27.343,48.61
653.65,336.72,27.302,48.537
654.73,337.27,27.52,48.924
656.53,337.69,27.734,49.304
657.52,337.52,27.772,49.372
658.85,337.67,28.29,50.293
659.5,337.69,28.239,50.203
661.08,338.03,28.202,50.136
661.87,337.95,28.261,50.242
662.59,337.59,28.396,50.481
663.08,337.44,28.066,49.895
664.16,337.41,27.856,49.522
665.51,337.61,27.991,49.762
666.48,337.39,27.952,49.693
667.43,337.52,28.003,49.783
668.08,337.65,27.96,49.706
668.81,337.61,28.363,50.423
669.68,338.06,28.303,50.316
670.55,338.4,28.132,50.013
671.45,338.68,28.231,50.188
672.45,339.19,28.329,50.363
672.82,338.93,28.317,50.342
673.21,339.01,28.278,50.272
673.96,338.91,28.394,50.479
674.97,338.72,28.54,50.737
675.72,338.52,28.717,51.052
676.5,338.52,28.804,51.208
677.46,338.52,28.86,51.306
678.28,338.46,29.308,52.102
679.4,339.27,29.143,51.81
680.77,339.39,29.606,52.633
681.79,339.72,29.565,52.56
682.92,340.1,29.442,52.341
683.82,340.34,29.216,51.94
685.46,340.35,29.269,52.034
686.44,340.19,29.259,52.017
687.31,340.04,29.313,52.112
688.02,339.69,29.482,52.413
688.98,339.41,29.705,52.81
690.01,338.98,29.934,53.216
690.89,339.03,30.156,53.61
692.04,339.06,30.352,53.959
692.4,338.82,30.359,53.971
693.33,338.9,30.421,54.082
694.63,339.59,30.288,53.845
695.5,339.93,30.344,53.944
696.11,339.98,30.297,53.861
697.14,340.51,30.304,53.873
697.65,340.28,30.728,54.628
698.44,340.12,30.576,54.357
699.52,340.39,30.443,54.12
700.35,340.28,30.346,53.948
701.1,340.3,30.24,53.76
701.88,340.56,30.275,53.822
702.53,340.45,30.654,54.495
703.83,341.02,30.486,54.197
704.76,341.23,30.694,54.568
706.02,341.36,30.777,54.714
707.52,341.85,30.834,54.816
708.68,341.79,31.184,55.438
709.69,341.91,30.949,55.021
711.06,342.04,30.805,54.764
711.9,341.97,30.704,54.585
712.73,341.7,30.71,54.595
714.03,341.53,30.667,54.518
715.3,341.69,30.726,54.624
715.91,341.53,30.675,54.534
716.86,341.48,30.689,54.559
717.79,341.56,30.699,54.576
719,341.86,30.533,54.281
720.34,342.46,30.779,54.718
720.86,342.44,30.85,54.844
721.98,343.16,30.752,54.669
722.59,343.14,30.672,54.527
723.43,343.01,31.084,55.26
723.85,342.76,31.277,55.603
724.77,342.95,31.596,56.172
725.63,342.84,31.606,56.189
726.67,342.64,31.616,56.206
727.7,342.59,31.687,56.332
728.36,342.6,31.721,56.393
728.95,342.66,31.599,56.176
730.54,343.68,31.244,55.545
730.71,343.53,31.752,56.448
726.21,343.99,31.727,56.404
715.67,344.09,32.013,56.912
703.12,344.24,32.135,57.129
689.31,342.73,32.024,56.931
678.51,340.55,32.111,57.086
677.52,338.47,31.923,56.752
678.77,338.66,32.059,56.994
679.5,338.21,31.954,56.807
680.87,338.77,31.892,56.698
681.9,338.42,31.873,56.663
682.31,338.32,31.672,56.306
683.48,338.3,31.628,56.228
684.3,338.61,31.622,56.217
684.65,338.71,31.65,56.266
685.28,338.59,31.667,56.297
686.37,339.16,31.644,56.255
687.1,339.25,31.609,56.194
688.19,339.54,31.803,56.538
688.31,339.25,32.01,56.907
689.08,339.29,32.141,57.139
690.06,338.87,32.201,57.246
691.23,339.01,32.371,57.548
692.45,338.88,32.477,57.738
693.2,338.8,32.469,57.723
694.88,339.04,32.428,57.651
696.34,339.52,32.437,57.666
697.7,340.15,32.48,57.742
699.25,340.45,32.523,57.818
700.66,340.72,32.728,58.182
702.13,340.93,32.796,58.304
703,340.42,32.831,58.366
704.62,340.23,32.983,58.637
706.34,340.46,33.193,59.01
707.04,339.94,33.41,59.396
709.09,340.15,33.537,59.621
710.35,339.99,33.584,59.706
711.88,339.95,33.557,59.657
712.94,340.2,33.566,59.673
714,340.6,33.384,59.35
715.57,341.25,33.424,59.421
717,341.64,33.432,59.435
718.35,341.94,33.498,59.552
719.22,341.95,33.574,59.687
720.29,342.15,33.559,59.661
721.12,342.28,33.598,59.73
721.84,341.92,33.612,59.755
723.24,342.22,33.608,59.748
724.19,341.93,33.63,59.787
725.61,342.4,33.795,60.081
727.21,342.42,33.736,59.975
729.11,342.47,34.197,60.795
730.01,342.37,34.072,60.573
731.93,343.35,34.25,60.888
733.27,343.36,34.122,60.661
735.35,344.23,34.289,60.958
737.26,344.18,34.057,60.546
738.96,344.57,34.324,61.021
739.96,344.21,34.614,61.536
741.25,343.83,34.469,61.279
742.84,343.74,34.883,62.014
744.39,343.41,34.729,61.74
746.16,343.6,34.736,61.752
747.67,343.51,34.916,62.072
748.75,343.43,34.645,61.591
750.08,343.84,34.351,61.068
752.24,344.53,34.371,61.105
753.84,344.98,34.668,61.632
754.85,345.07,34.748,61.774
756.28,345.35,35.063,62.334
757.19,345.48,35.24,62.648
758.58,345.45,35.247,62.661
759.48,345.36,35.308,62.77
760.31,345.04,35.438,63
762,345.41,35.513,63.135
763.45,345.01,35.612,63.309
764.77,345.16,35.649,63.376
766.14,345.3,35.607,63.301
767.72,346.05,35.351,62.846
769.43,346.47,35.508,63.126
771.18,346.71,35.932,63.879
773.43,346.87,36.156,64.277
775.26,347.27,36.542,64.964
776.63,347.26,36.707,65.256
777.92,346.87,36.759,65.349
779.87,347.16,36.879,65.562
781.94,347.14,36.958,65.704
783.35,346.72,36.825,65.467
784.97,346.65,36.766,65.362
786.59,346.84,36.599,65.065
788.19,346.78,36.381,64.677
790.3,347.1,36.48,64.854
792.03,347.52,36.457,64.812
793.58,347.92,36.254,64.452
794.99,348.18,36.366,64.651
796.48,348.45,36.334,64.593
798.5,348.88,36.168,64.299
800.38,349.28,36.598,65.063
801.4,349.05,36.799,65.42
802.69,349.04,37.026,65.824
803.93,348.79,37.182,66.101
805.87,348.62,37.338,66.378
807.53,348.37,37.526,66.712
809.16,348.6,37.591,66.828
810.55,349.22,37.403,66.495
812.23,349.26,37.524,66.708
815.39,350.17,37.274,66.266
817.23,350.43,37.492,66.652
819.38,351.26,37.363,66.424
821.54,351.33,37.296,66.304
823.51,350.94,37.936,67.442
825.02,350.59,38.257,68.013
828.79,350.65,38.395,68.257
830.9,350.6,38.134,67.794
832.55,350.55,38.174,67.865
834.18,350.18,38.662,68.732
835.83,350.38,38.377,68.226
838.92,350.47,38.499,68.443
841.13,350.84,38.432,68.324
843.13,351.21,38.589,68.603
844.55,352,38.513,68.468
846.64,352.31,38.709,68.816
848.75,352.28,38.715,68.828
851.12,352.45,38.733,68.858
853.88,352.8,38.769,68.923
855.21,352.83,38.879,69.118
857.84,352.61,39.51,70.239
858.85,352.33,39.839,70.825
859.34,352.22,39.944,71.011
859.93,351.93,40.117,71.318
862.96,352.57,39.929,70.985
865.18,352.94,40.17,71.414
867.96,353.37,39.849,70.842
869.77,354.3,39.556,70.321
872.35,354.38,39.78,70.72
873.86,354.52,39.903,70.938
880.5,355.12,40.448,71.907
882.07,354.44,40.321,71.682
884.73,354.16,41.087,73.043
889.13,354.24,41.281,73.389
892.48,354.47,41.415,73.626
895.58,354.47,41.389,73.58
897.52,354.69,41.263,73.356
901.39,354.84,41.704,74.141
904.08,355.4,41.574,73.909
906.4,355.46,41.963,74.601
909.67,355.97,42.097,74.838
911.01,356.13,42.067,74.786
915.1,356.63,42.231,75.077
917.96,356.32,42.107,74.856
920.3,356.72,42.047,74.751
923.09,357.22,42.403,75.383
925.16,357.16,42.593,75.721
927.08,356.79,42.853,76.183
929.55,356.72,43.11,76.64
932.32,356.89,43.354,77.073
912.74,353.4,42.932,76.324
916.7,353.95,42.476,75.514
919.75,354.61,42.174,74.976
922.81,355.39,41.991,74.651
924.98,355.69,41.841,74.384
925.16,355.63,41.531,73.832
919.18,358.24,41.54,73.848
916.64,359.41,41.484,73.749
927.49,362.56,42.115,74.872
920.89,362.7,42.597,75.728
913.11,362.5,42.687,75.888
894.48,362.23,43.26,76.906
889.1,361.73,43.539,77.403
890.52,361.97,43.947,78.128
891.61,361.59,44.225,78.622
893.07,361.77,44.294,78.745
887.85,362.09,44.543,79.188
878.96,362.17,44.742,79.541
870.99,362.25,44.813,79.668
858.65,362,44.808,79.658
846.68,362,44.979,79.963
833.64,361.69,44.597,79.284
829.95,361.44,44.558,79.214
826.59,361.08,44.134,78.461
822.9,360.8,43.848,77.952
819.7,360.88,43.487,77.311
802.99,362.17,43.366,77.095
790.76,362.38,42.785,76.063
782.35,362.73,42.577,75.693
773.67,362.66,42.16,74.951
771.98,364.01,41.973,74.618
756.12,362.67,41.738,74.201
761.04,362.56,41.238,73.311
777.21,366.04,41.85,74.399
774.42,365.63,42.715,75.938
768.95,364.35,43.084,76.593
751.29,362.53,42.673,75.863
748.72,362.43,42.898,76.262
751.37,362.41,42.989,76.425
754.23,362.91,43.04,76.515
754.11,363.08,43.284,76.949
742.01,363.22,43.393,77.143
730.51,363.61,43.387,77.133
718.77,364.45,43.637,77.577
707.35,364.16,44.336,78.819
702.79,364.17,44.762,79.577
698.54,363.77,44.991,79.984
696.59,363.91,45.078,80.138
698.32,364.02,45.096,80.171
698.2,364.28,45.003,80.005
698.67,363.86,44.899,79.82
699.5,364.05,44.976,79.957
697.78,363.31,44.647,79.373
696.63,363.62,44.418,78.964
696.11,363.18,44.053,78.317
701.29,363.25,43.617,77.541
704.57,363.4,43.34,77.048
704.96,363.06,42.633,75.793
694.03,367.74,43.179,76.763
696.07,367.67,43.774,77.82
700.39,367.85,44.439,79.002
704.16,367.61,44.769,79.59
707.02,368.46,45.531,80.945
708.1,368.97,46.277,82.271
710.8,368.83,46.724,83.064
713.11,368.22,47.068,83.677
714.66,367.43,47.488,84.422
716.81,367.43,47.575,84.578
712.49,367.29,47.456,84.365
707.19,368.08,47.797,84.972
701.93,368.44,48.066,85.451
700.16,367.89,48.061,85.442
699.78,368.53,48.374,85.997
702.83,368.42,48.779,86.718
707.17,368.83,48.935,86.996
711.76,369.47,49.192,87.452
714.28,369.53,49.423,87.863
716.84,369.14,49.595,88.169
720.08,369.9,49.999,88.887
725.09,369.35,49.988,88.867
727.49,369.8,50.005,88.897
723.67,370.95,50.853,90.406
726.37,370.37,51.49,91.538
730.19,370.25,51.729,91.963
734.64,371.03,52.063,92.557
