661.5,324.5,20,51
660.81,325.88,20.009,51.022
660.49,326.06,20.006,51.016
660.17,326.12,19.959,50.896
659.57,326,19.91,50.77
658.93,325.89,19.884,50.704
658.58,326,19.857,50.634
658.26,326,19.813,50.522
658.34,326.25,19.682,50.19
658.1,326.24,19.821,50.545
657.12,326.23,19.717,50.277
656.91,326.24,19.922,50.802
656.16,325.86,19.791,50.468
656.42,325.94,20.114,51.292
655.6,325.71,20.159,51.407
654.94,325.18,20.258,51.657
654.71,325.34,20.275,51.702
654.46,325.45,20.434,52.107
653.6,325.42,20.209,51.533
653.39,325.24,20.346,51.881
653.56,325.87,20.316,51.806
653.33,325.87,20.338,51.862
653.18,326.03,20.272,51.694
652.65,326.01,20.261,51.664
652.48,325.97,20.262,51.668
652.28,326.17,20.132,51.337
651.92,326.03,20.063,51.161
652.2,326.39,19.985,50.963
652.03,326.58,19.936,50.837
651.22,325.91,20.048,51.122
651.56,326.26,20.04,51.101
651.29,326.38,19.985,50.962
651.03,326.37,19.994,50.985
650.89,326.34,19.991,50.976
650.58,326.16,20.037,51.094
650.38,326.27,19.901,50.747
649.8,325.88,19.873,50.675
649.66,325.7,19.949,50.87
649.86,325.88,20.002,51.005
649.86,326.15,20.011,51.029
649.75,326.26,19.994,50.986
649.7,326.13,20.022,51.056
649.77,326.09,19.951,50.875
649.37,325.82,20.038,51.096
649.27,326.2,19.888,50.715
648.12,325.89,19.828,50.562
648.11,325.99,19.83,50.566
647.84,325.9,19.844,50.602
647.69,325.89,19.835,50.578
647.53,326.01,19.812,50.52
647.22,326.06,19.81,50.515
647.37,325.95,19.859,50.64
647.2,325.74,19.947,50.866
647.65,325.86,20.012,51.031
647.47,326.01,20.021,51.054
646.66,326.24,19.968,50.918
646.35,326.16,19.994,50.984
646.08,326.41,20.042,51.108
646.96,326.49,19.942,50.852
645.86,325.85,20.082,51.208
647.16,326.78,20.043,51.111
646.45,326.64,20.005,51.013
645.88,326.64,20.046,51.117
645.66,326.61,20.126,51.32
645.25,326.61,20.092,51.236
645.15,326.82,20.068,51.174
645.04,327.11,19.994,50.986
644.18,327.29,20.031,51.079
643.36,327.28,19.935,50.833
642.69,327.1,19.963,50.904
643.28,327.55,19.953,50.879
642.01,327.22,20.025,51.063
643.09,328.03,19.966,50.914
642.64,327.67,19.963,50.906
641.78,327.26,20.039,51.098
642.01,327.4,20.006,51.015
642.59,327.74,19.993,50.982
641.78,327.19,20.098,51.249
641.54,326.96,20.096,51.245
642.12,327.32,20.084,51.214
642.1,327.1,20.068,51.174
641.72,326.79,20.09,51.23
642.17,326.86,20.09,51.23
642.21,326.71,20.08,51.205
642.1,326.77,20.086,51.22
642.06,326.69,20.162,51.414
641.64,326.04,20.259,51.661
641.34,325.8,20.349,51.89
641.42,325.97,20.332,51.846
641.28,326,20.351,51.894
640.94,326.05,20.369,51.941
641.02,326.38,20.361,51.92
640.99,326.54,20.332,51.848
640.62,326.65,20.34,51.867
640.45,326.79,20.361,51.921
640.26,327.06,20.42,52.072
639.92,327.03,20.367,51.936
640.14,327.53,20.36,51.919
639.42,327.64,20.362,51.922
639.05,327.86,20.394,52.005
638.87,327.91,20.363,51.925
638.52,328.13,20.394,52.006
638.17,328.39,20.374,51.953
638.21,328.29,20.413,52.054
637.87,327.86,20.429,52.093
637.59,327.44,20.389,51.993
637.8,327.75,20.447,52.141
637.55,327.11,20.459,52.17
637.35,327.27,20.466,52.189
637.26,327.54,20.41,52.045
637.52,328.1,20.417,52.063
637.48,328.17,20.418,52.066
637.17,327.91,20.394,52.006
637.46,328.61,20.474,52.21
636.99,328.08,20.464,52.184
637.09,328.2,20.464,52.184
637.21,328.12,20.485,52.238
637.41,327.64,20.595,52.516
637.83,327.88,20.689,52.756
637.88,327.73,20.765,52.952
637.63,327.13,20.631,52.609
637.49,327.45,20.707,52.804
636.62,327.08,20.779,52.986
636.62,327.35,20.764,52.949
636.22,327.59,20.792,53.02
636.65,327.94,20.887,53.263
637.22,328.66,21.085,53.766
636.92,328.44,21.209,54.084
637.25,329.37,21.393,54.551
636.42,330.03,21.511,54.853
635.96,331.6,21.533,54.909
636.05,329.52,21.623,55.138
634.03,331.33,21.627,55.149
634.15,329.94,21.625,55.145
633.48,330.29,21.676,55.273
632.94,329.57,21.654,55.218
632.86,329.9,21.715,55.372
632.35,329.98,21.68,55.283
632.14,330.56,21.715,55.374
631.19,330.24,21.728,55.407
630.8,331.41,21.628,55.15
630.53,331.1,21.647,55.2
630.12,331.59,21.698,55.33
630.21,330.7,21.715,55.373
630.3,330.42,21.74,55.437
629.23,330.36,21.752,55.466
629.22,329.82,21.871,55.771
629.1,329.56,21.935,55.934
627.18,329.94,22.021,56.154
628.36,329.97,22.013,56.133
631.45,329.27,21.949,55.97
631.8,329.19,21.995,56.087
632.4,329.36,22.026,56.167
632.96,329.62,22.005,56.113
632.7,329.57,22.007,56.118
632.29,330.51,21.947,55.965
609.44,333.5,21.928,55.916
609.07,333.13,21.961,56
608.48,332.23,21.986,56.064
608.02,332.48,21.975,56.035
607.28,331.93,22.112,56.385
606.6,332.66,22.12,56.407
606.26,332.72,22.09,56.329
605.16,333.43,22.031,56.18
604.11,334.05,22.032,56.181
603.37,333.77,21.991,56.077
601.76,333.64,22.025,56.163
600.76,334.17,21.941,55.95
599.79,334.17,21.95,55.972
598.73,333.74,22.077,56.295
598.9,333.75,22.05,56.228
596.97,333.83,22.057,56.244
597.33,334.32,22.132,56.436
596.87,334.35,22.216,56.652
596.25,333.6,22.272,56.794
594.34,334.43,22.146,56.473
593.38,334.74,22.193,56.592
591.6,334.43,22.318,56.911
585.02,334.76,22.303,56.872
584.37,334.95,22.33,56.942
583.89,334.96,22.451,57.25
583.22,334.82,22.543,57.484
582.65,333.93,22.567,57.547
581.62,333.22,22.617,57.672
581.47,333.35,22.579,57.576
580.44,333.09,22.596,57.619
579.47,333.6,22.697,57.878
578.57,333.89,22.789,58.111
577.59,333.79,22.84,58.242
576.75,333.75,22.875,58.331
575.99,334.1,22.907,58.413
575.02,333.57,22.902,58.4
573.31,333.51,22.901,58.399
572.12,332.86,22.981,58.601
571.51,332.61,22.986,58.615
571.3,330.09,23.106,58.921
570.61,329.23,23.103,58.912
570.14,330.41,23.078,58.849
569.26,331.72,23.014,58.686
568.55,334.12,22.937,58.488
569.83,335.83,22.913,58.428
570.97,335.2,22.866,58.308
570.94,334.71,22.74,57.986
575.28,336.38,22.838,58.238
575.76,336.78,22.762,58.043
575.86,336.38,22.793,58.122
580.37,335.49,22.806,58.156
590.82,333.8,22.968,58.568
599.98,334.74,22.964,58.558
608.01,336.34,22.934,58.483
612.75,335.91,22.985,58.611
614.5,335.3,23.118,58.951
615.31,334.57,23.068,58.823
616.33,334.5,23.067,58.822
616.18,333.75,23.148,59.028
615.92,332.99,23.107,58.923
615.77,332.23,23.061,58.806
614.94,333.66,22.986,58.613
613.78,334.3,23.078,58.85
612.66,333.13,22.995,58.638
611.47,332.41,23.18,59.109
610.2,331.54,23.241,59.264
609.85,332.29,23.252,59.292
608.95,332.42,23.39,59.643
608.11,333.26,23.421,59.723
606.8,333.37,23.42,59.722
605.1,333.51,23.545,60.041
603.72,334.02,23.556,60.067
601.23,333.78,23.588,60.15
599.45,334,23.691,60.413
595.82,333.83,23.791,60.666
594.61,334.11,23.863,60.852
593.29,334.48,23.87,60.868
592.08,334.97,24.011,61.228
591.02,334.9,23.997,61.192
589.73,335.36,24.058,61.348
588.62,335.62,24.011,61.227
587.59,335.2,23.998,61.196
586.33,335.77,23.954,61.083
585.46,336.31,23.996,61.189
584.26,337.14,23.952,61.078
582,338.21,23.943,61.056
581.03,338.65,23.865,60.857
579.54,339.2,23.758,60.582
577.82,338.85,23.766,60.603
576.58,339.21,23.778,60.635
576.63,338.64,23.76,60.589
575.52,338.08,23.934,61.031
574.78,338.2,24.027,61.269
573.98,338.13,24.028,61.27
572.48,338.68,23.919,60.994
570.51,339.08,23.926,61.01
569.38,339.22,23.89,60.919
567.7,339.49,23.872,60.873
566.25,339.88,23.921,60.998
563.75,339.5,23.9,60.944
561.16,339.84,23.985,61.162
559.6,339.57,24.06,61.352
559.06,339.35,24.206,61.726
557.79,338.64,24.356,62.108
556.63,338.32,24.473,62.405
555.42,338.28,24.556,62.618
554.59,338.42,24.565,62.64
553.71,338.93,24.488,62.444
553.03,339.29,24.528,62.547
551.79,339.85,24.556,62.619
550.91,340.24,24.502,62.48
549.8,339.92,24.579,62.677
548.17,339.43,24.592,62.71
546.68,338.64,24.623,62.789
546.24,337.82,24.699,62.982
545.4,336.91,24.653,62.864
544.48,336.35,24.711,63.013
543.63,336.37,24.715,63.023
543.15,336.87,24.706,62.999
542.39,337.5,24.604,62.74
540.89,337.92,24.587,62.696
538.93,337.27,24.632,62.812
537.44,337,24.718,63.03
535.26,336.92,24.67,62.909
532.9,336.85,24.877,63.437
530.35,336.84,25.003,63.759
528.85,337.16,25.092,63.986
528.09,336.56,25.223,64.318
526.6,335.84,25.296,64.506
525.67,335.45,25.321,64.569
524.6,334.87,25.242,64.366
523.58,334.91,25.231,64.34
522.85,335.57,25.002,63.756
521.5,336.01,25.023,63.808
520.29,336.33,25.019,63.8
518.38,337.07,25.059,63.901
516.7,337.14,25.109,64.028
515.52,337.22,25.399,64.768
514,337.08,25.471,64.95
512.45,337.7,25.534,65.113
511.12,337.47,25.516,65.066
510.36,337.55,25.493,65.007
509.74,337.59,25.517,65.069
508.62,337.12,25.682,65.489
507.41,336.83,25.807,65.807
506.12,337.31,25.871,65.97
503.76,337.34,25.866,65.959
501.86,337.93,25.834,65.877
500.22,338.2,25.804,65.8
498.5,338.66,25.966,66.214
494.2,338.63,26.001,66.303
493.15,338.61,26.035,66.39
492.33,338.37,26.057,66.445
492.01,338.39,26.145,66.67
489.84,337.82,26.231,66.89
487.77,337.46,26.332,67.146
486.77,337.29,26.374,67.255
485.84,337.6,26.4,67.321
484.81,337.81,26.462,67.478
483.45,338.19,26.437,67.414
481.53,339,26.439,67.42
480.17,339.13,26.451,67.451
478.75,339.54,26.505,67.589
476.97,339.46,26.509,67.597
475.43,339.16,26.588,67.798
473.52,338.95,26.723,68.144
472.23,339.23,26.729,68.159
471.49,339.66,26.734,68.171
470.36,339.57,26.761,68.24
469.16,339.57,26.835,68.428
466.91,339.32,26.892,68.574
465.35,339.62,26.957,68.741
463.82,340.53,27.01,68.876
461.67,341.13,27.12,69.156
459.43,341.04,27.105,69.118
455.9,341.74,27.058,68.997
455.19,341.92,27.166,69.273
454.29,341.14,27.282,69.569
454.61,340.91,27.292,69.594
453.76,340.71,27.142,69.211
450.71,340.18,27.109,69.127
450.08,340.38,26.947,68.714
449.61,341.08,27.095,69.092
448.03,341.05,26.922,68.652
447.73,341.76,26.949,68.719
446.41,342.29,27.078,69.05
445.12,342.65,27.115,69.143
443.7,343.04,27.305,69.627
442.6,344.19,27.438,69.967
440.39,343.66,27.544,70.236
441.68,344.74,27.549,70.251
441.02,344.67,27.733,70.719
440.48,343.03,27.876,71.084
440.06,342.5,28.094,71.64
438.5,343.28,27.981,71.351
436.81,342.8,27.891,71.121
436.67,343.61,27.993,71.383
434.67,344.28,27.781,70.843
433.43,344.81,27.758,70.782
432.01,344.52,27.816,70.93
430.04,344.99,27.866,71.059
428.14,344.76,27.94,71.246
426.95,344.82,27.944,71.258
425.32,345.13,27.989,71.371
423.69,344.39,28.051,71.53
422.08,343.83,28.159,71.805
421.52,344.01,28.247,72.029
419.37,343.99,28.458,72.569
419.58,344.89,28.256,72.052
418.01,344.99,28.084,71.614
418.16,345.55,28.016,71.44
415.81,345.78,27.939,71.245
415.43,346.09,27.951,71.274
413.57,347.17,28.016,71.442
413.14,348.17,27.888,71.114
411.97,348.53,27.782,70.845
410.95,347.85,28.115,71.692
409.89,346.76,28.512,72.706
408.8,345.95,28.696,73.175
404.39,346.09,28.747,73.306
403.59,346.08,28.711,73.213
403.6,345.84,28.675,73.122
403.3,345.2,28.712,73.216
403.21,345.16,28.713,73.217
402.97,345.51,28.651,73.061
402.56,345.8,28.619,72.977
402.48,345.75,28.631,73.009
402.24,345.62,28.627,73
402.29,345.52,28.668,73.104
401.76,345.64,28.698,73.18
402.6,345.85,28.77,73.362
402.24,345.86,28.823,73.498
402.27,345.8,28.802,73.446
401.85,345.91,28.748,73.307
401.96,346.24,28.699,73.183
402.09,346.69,28.68,73.134
401.22,346.6,28.776,73.379
401.16,346.67,28.828,73.511
401.04,346.2,28.729,73.259
401.75,346.45,28.794,73.425
400.95,346.63,28.755,73.324
401.06,346.8,28.703,73.194
401.22,347.25,28.554,72.812
400.59,346.77,28.572,72.859
400.85,346.83,28.636,73.021
400.77,346.77,28.675,73.122
400.59,346.84,28.72,73.236
401.5,347.13,28.744,73.297
401.19,347.11,28.74,73.287
401.08,347.37,28.641,73.034
400.58,347.12,28.646,73.046
400.81,347.37,28.693,73.167
401.22,347.69,28.716,73.226
401.03,348.01,28.635,73.018
400.29,347.32,28.752,73.317
400.94,348.11,28.696,73.176
400.63,348.42,28.604,72.941
400.3,347.55,28.758,73.334
400.23,348.09,28.665,73.095
399.69,348.04,28.649,73.056
400.19,347.71,28.703,73.194
400.86,348.23,28.56,72.829
400.11,348.28,28.467,72.592
400.12,349.05,28.38,72.37
399.79,348.97,28.457,72.565
399.29,348.93,28.508,72.695
399.14,348.02,28.588,72.898
397.91,346.84,28.616,72.97
398.04,346.44,28.656,73.072
398.35,345.67,28.771,73.366
398.75,345.53,28.69,73.159
398.64,345.35,28.583,72.888
398.65,344.91,28.615,72.968
398.66,344.98,28.625,72.995
398.66,344.99,28.667,73.101
399.27,345.28,28.729,73.259
399.91,345.9,28.746,73.302
399.74,345.43,28.797,73.433
399.33,345.01,28.8,73.44
399.43,345.17,28.779,73.387
399.76,345,28.749,73.311
400.05,344.55,28.915,73.732
399.77,343.81,28.803,73.446
400.02,343.5,28.674,73.118
399.56,343.65,28.655,73.071
399.65,343.29,28.655,73.07
399.39,343.29,28.666,73.097
399.22,342.91,28.696,73.174
399.8,342.18,28.75,73.311
399.1,340.23,28.596,72.919
398.57,336.36,28.449,72.545
399.47,333.92,28.571,72.856
398.73,330.45,28.626,72.998
398.72,328.21,28.683,73.142
398.91,327.38,28.61,72.956
397.98,326.79,28.55,72.802
398.57,326.83,28.554,72.812
399,327.8,28.585,72.892
398.58,328.46,28.607,72.948
398.81,329.01,28.71,73.21
398.96,329.57,28.729,73.26
399.13,329.48,28.702,73.19
399.33,329.37,28.571,72.856
398.59,328.43,28.533,72.76
398.33,328.31,28.43,72.497
398.86,329.07,28.372,72.347
398.55,328.86,28.326,72.231
398.53,328.54,28.315,72.202
398.66,328.47,28.27,72.087
398.59,328.45,28.282,72.118
398.69,328.51,28.32,72.216
398.52,328.55,28.379,72.366
399.29,329.53,28.31,72.191
398.75,329.68,28.25,72.037
398.57,329.66,28.307,72.183
398.51,329.02,28.433,72.503
398.98,328.99,28.479,72.621
398.96,327.96,28.586,72.895
398.21,327.37,28.603,72.938
397.98,327.42,28.609,72.954
398.07,327.74,28.536,72.767
397.91,328.52,28.608,72.949
397.83,329.2,28.672,73.114
398.11,329.71,28.682,73.139
397.96,330.12,28.573,72.861
397.44,329.14,28.57,72.854
397.02,328.31,28.587,72.896
397.03,327.27,28.544,72.788
397.05,326.53,28.69,73.16
397.6,326.77,28.632,73.012
397,326.71,28.62,72.982
396.84,326.79,28.683,73.141
397.55,327.26,28.635,73.019
396.67,327.08,28.573,72.862
396.82,327.06,28.591,72.907
396.74,327.14,28.591,72.908
396.83,327.09,28.636,73.022
396.85,327.13,28.593,72.913
396.67,326.72,28.773,73.371
397.12,327.26,28.719,73.234
397.28,327.65,28.557,72.822
396.87,327.52,28.643,73.039
396.95,328.33,28.652,73.062
397.05,328.5,28.77,73.363
397.34,329.15,28.65,73.057
396.93,329.27,28.662,73.089
397.09,329.68,28.701,73.188
397.57,330.38,28.472,72.603
397.68,330.61,28.535,72.764
397.09,330.45,28.614,72.965
397.16,330.72,28.775,73.377
397.86,331.5,28.638,73.028
397.49,331.36,28.639,73.031
397.53,331.24,28.683,73.141
398.03,331.8,28.737,73.278
398.29,332.27,28.555,72.815
397.93,332.39,28.579,72.877
398.04,332.74,28.699,73.183
398.71,333.59,28.598,72.926
398.02,333.39,28.654,73.067
398.29,333.54,28.802,73.445
398.45,334.13,28.535,72.765
398.2,334.2,28.487,72.642
398.67,334.74,28.493,72.656
398.77,334.96,28.557,72.821
398.22,334.37,28.606,72.946
398.29,334.4,28.52,72.725
398.77,334.79,28.454,72.558
399.19,335.61,28.205,71.924
399.37,336.1,28.144,71.768
399.5,336.28,28.153,71.789
399.38,336.77,28.111,71.683
399.39,337.06,28.155,71.795
399.23,337.33,28.187,71.878
399.23,337.47,28.251,72.041
398.74,336.77,28.345,72.28
398.6,336.01,28.447,72.54
399.1,335.73,28.502,72.681
398.92,334.94,28.548,72.798
398.77,334.29,28.482,72.628
399.17,334.69,28.447,72.54
399.08,334.95,28.411,72.449
399.3,335.65,28.286,72.129
398.8,335.38,28.347,72.284
398.79,335.66,28.369,72.341
398.87,336.07,28.435,72.509
399.06,336.87,28.319,72.214
398.6,336.63,28.248,72.032
398.38,336.7,28.309,72.188
398.33,337.04,28.348,72.288
398.4,337.17,28.433,72.505
398.92,337.68,28.42,72.471
399,338.12,28.395,72.407
398.81,338.18,28.437,72.514
398.77,338.4,28.359,72.314
398.49,338.16,28.393,72.403
398.75,338.64,28.343,72.275
398.41,338.14,28.417,72.464
398.99,338.62,28.353,72.299
398.86,337.94,28.453,72.556
399.35,338.67,28.308,72.186
399.04,338.59,28.313,72.198
398.99,338.92,28.372,72.349
399.22,339.28,28.395,72.407
399.57,339.86,28.265,72.076
399.17,339.65,28.239,72.01
399.18,339.75,28.269,72.086
399.2,339.83,28.309,72.188
399.3,339.95,28.338,72.263
399.18,340.13,28.396,72.41
399.74,340.9,28.295,72.153
399.28,340.5,28.326,72.231
399.19,340.8,28.298,72.16
399.13,341.16,28.396,72.409
399.58,342.48,28.27,72.089
399.11,342.4,28.421,72.475
399.51,343.5,28.409,72.444
399.41,343.9,28.453,72.555
399.27,344,28.467,72.59
399.3,343.47,28.571,72.857
398.6,342.34,28.565,72.84
398.46,341.44,28.688,73.154
398.74,341.28,28.758,73.332
398.5,341.2,28.676,73.125
398.24,341.11,28.629,73.005
397.75,341.3,28.666,73.099
397.96,342.41,28.498,72.671
397.87,342.96,28.539,72.775
397.25,342.9,28.575,72.865
397.11,342.8,28.609,72.952
397.12,342.75,28.651,73.06
396.91,342.95,28.649,73.056
396.67,342.84,28.659,73.08
396.74,343.18,28.548,72.797
396.56,342.86,28.609,72.954
396.36,343.35,28.619,72.978
396.35,343.7,28.634,73.017
396.16,343.88,28.687,73.152
396.46,344.32,28.652,73.062
396.37,344.16,28.57,72.853
396.17,343.62,28.686,73.149
396.44,344.2,28.537,72.77
396.04,343.58,28.579,72.877
395.95,343.8,28.637,73.023
395.77,343.86,28.737,73.28
396.17,344.45,28.679,73.132
396.13,344.52,28.743,73.294
396.07,344.57,28.668,73.103
395.68,344.2,28.703,73.193
395.96,344.52,28.627,72.999
395.53,344.07,28.631,73.008
395.53,344.21,28.615,72.969
395.62,344.13,28.646,73.047
395.89,344.32,28.663,73.091
395.87,344.29,28.659,73.08
395.85,344.34,28.694,73.171
396.13,344.47,28.74,73.287
396.03,344.76,28.689,73.156
395.93,344.85,28.596,72.919
395.34,344.35,28.72,73.237
395.76,345.22,28.561,72.831
395.22,344.52,28.663,73.09
395.3,344.78,28.7,73.185
395.56,345.19,28.617,72.973
394.96,344.72,28.73,73.262
395.37,345.35,28.672,73.113
394.99,344.8,28.715,73.224
394.91,344.42,28.538,72.771
394.38,343.41,28.493,72.656
394.85,343.42,28.394,72.406
394.81,343.17,28.435,72.508
394.72,343.09,28.438,72.516
394.63,343.06,28.441,72.525
394.51,342.92,28.486,72.64
394.39,343.01,28.488,72.645
394.39,343.1,28.483,72.632
394.34,343.71,28.391,72.398
394.3,344.18,28.38,72.37
394.32,344.69,28.38,72.37
394.28,344.84,28.337,72.258
393.58,344.14,28.513,72.708
393.82,344.58,28.502,72.68
393.65,344.56,28.512,72.705
393.84,343.23,28.503,72.683
393.84,340.06,28.519,72.724
393.99,336.01,28.621,72.983
393.52,330.85,28.943,73.806
394.35,326.03,28.859,73.592
394.11,322.97,28.672,73.115
394.46,321.19,28.588,72.898
394.28,319.46,28.588,72.901
394.44,318.67,28.606,72.945
394.66,319.29,28.571,72.856
394.59,320.98,28.559,72.826
394.99,324.05,28.55,72.803
394.82,328.24,28.66,73.083
394.49,332.79,28.751,73.316
395.06,339.82,28.662,73.089
394.65,343.06,28.955,73.835
394.37,346.21,29.144,74.316
394.38,346.82,29.229,74.534
394.8,346.97,29.201,74.462
394.43,344.94,29.418,75.017
394.53,341.6,29.421,75.023
394.62,339.74,29.4,74.97
394.63,337.74,29.441,75.075
394.46,335.58,29.423,75.03
394.77,334.97,29.238,74.558
395.16,334.39,29.17,74.384
395.03,334.79,29.135,74.295
394.93,336.36,29.096,74.195
395.06,338.56,29.135,74.294
395.02,340.19,28.927,73.763
395.08,341.45,28.769,73.362
395.82,342.67,28.739,73.284
395.68,343.68,28.791,73.417
395.61,344.8,28.789,73.412
395.49,345.49,28.912,73.726
395.09,345.82,29.009,73.973
395.51,346.8,28.957,73.841
395.63,347.06,29.079,74.151
395.97,347.57,29.043,74.061
396.2,347.32,29.281,74.665
396.21,345.63,29.507,75.243
395.74,342.99,29.675,75.671
395.82,341.46,29.76,75.889
395.83,339.71,29.695,75.721
396.29,339.34,29.704,75.746
395.99,340.03,29.671,75.66
395.93,341.21,29.611,75.507
396.14,343.38,29.485,75.186
395.78,344.75,29.496,75.216
395.68,346.78,29.265,74.627
395.92,347.69,29.43,75.047
395.84,347.54,29.158,74.354
395.71,346.63,29.113,74.237
395.77,346.28,29.174,74.394
395.36,345.37,29.281,74.666
395.43,345.63,29.377,74.911
394.8,345.14,29.401,74.973
394.32,345,29.437,75.064
393.76,344.84,29.478,75.169
393.6,345.08,29.385,74.932
393.78,345.24,29.347,74.835
393.78,345.77,29.29,74.691
393.8,346.24,29.219,74.508
393.22,346.54,29.197,74.452
392.92,347.43,29.21,74.485
392.63,347.77,29.254,74.598
392.84,348.44,29.135,74.294
392.57,348.09,29.179,74.406
392.33,348.2,29.205,74.473
392.01,348.17,29.239,74.56
392.25,348.51,29.113,74.238
392.26,348.15,29.148,74.328
391.87,347.76,29.101,74.209
392.16,347.72,29.113,74.237
392,347.99,29.056,74.092
392.09,348.69,29.033,74.035
392.06,348.56,29.021,74.003
391.99,347.63,29.085,74.167
391.99,346.71,28.994,73.935
392.8,325.73,28.951,73.824
392.84,326.47,28.957,73.84
392.84,326.88,28.907,73.714
392.74,326.79,28.912,73.727
392.91,326.88,28.916,73.735
393.01,326.69,29.08,74.153
393.36,326.85,29.118,74.251
393.49,326.67,29.157,74.35
393.42,326.16,29.169,74.382
393.59,326.08,29.182,74.414
393.83,326.05,29.204,74.469
394,325.93,29.24,74.563
394.45,326.03,29.217,74.502
394.52,325.51,29.236,74.553
394.88,325.52,29.208,74.481
394.84,324.93,29.172,74.388
395.07,324.61,29.17,74.383
395.32,324.52,29.197,74.452
395.57,324.77,29.198,74.454
395.93,325.31,29.238,74.558
396.37,326.22,29.197,74.451
396.61,326.47,29.146,74.321
396.87,326.83,29.052,74.083
397.67,327.41,29.059,74.101
398.15,327.47,29.013,73.984
398.72,327.25,28.966,73.863
398.88,326.53,28.952,73.827
399.68,326.1,28.917,73.739
400.05,325.73,28.867,73.611
400.69,325.72,28.823,73.498
401.6,326.14,28.703,73.194
402.92,326.73,28.586,72.893
403.3,326.48,28.561,72.831
404.39,326.99,28.468,72.592
405.74,327.84,28.398,72.415
406.83,327.97,28.242,72.018
407.49,326.99,28.222,71.965
408.96,327.04,28.136,71.747
410.02,325.98,28.126,71.722
410.96,325.22,28.039,71.5
411.6,324.37,27.967,71.317
412.71,324.48,27.887,71.112
413.7,325.34,27.843,70.998
414.58,325.51,27.89,71.12
415.99,325.88,27.798,70.886
417.23,325.87,27.746,70.752
419.39,324.68,27.731,70.713
421.11,323.2,27.787,70.857
423.23,322.79,27.732,70.716
424.58,320.94,27.689,70.608
426.31,319.75,27.585,70.342
428.71,318.12,27.641,70.485
429.76,316.13,27.654,70.517
430.97,315.25,27.599,70.377
432.59,314.97,27.662,70.539
433.38,314.27,27.709,70.658
434.87,313.92,27.736,70.727
436.45,314.18,27.73,70.711
437.81,314,27.698,70.63
439.51,313.23,27.64,70.482
441.15,312.19,27.515,70.163
443.56,311.33,27.517,70.168
444.82,310.9,27.5,70.126
446.04,310.97,27.432,69.952
447.2,310.19,27.313,69.649
448.97,310.08,27.357,69.76
449.95,309.05,27.27,69.539
451.87,308.44,27.084,69.063
453.53,307.33,26.944,68.708
456.24,306.91,26.905,68.607
458.19,306.43,26.913,68.627
460.22,306.56,26.883,68.552
462.71,306.53,26.824,68.4
464.06,307.04,26.806,68.356
465.77,307.51,26.785,68.302
467.15,307.77,26.748,68.208
470.19,308.3,26.616,67.871
471.98,308.02,26.584,67.79
473.8,307.25,26.426,67.386
475.28,306.59,26.335,67.154
476.99,306.4,26.227,66.878
478.71,305.64,26.105,66.568
482.51,306.92,25.993,66.282
484.59,307.46,25.847,65.91
486.1,307.94,25.885,66.007
487.04,308.32,25.867,65.96
489.05,308.16,25.848,65.912
490.3,308.43,25.81,65.815
491.68,308.47,25.915,66.083
492.45,307.81,25.853,65.925
493.59,308.3,25.853,65.924
495.23,308.33,25.803,65.798
496.37,308.2,25.81,65.815
497.49,307.9,25.779,65.736
498.64,307.69,25.723,65.594
499.58,307.25,25.626,65.347
500.72,306.79,25.369,64.691
502.11,307.06,25.292,64.494
503.45,306.67,25.26,64.414
504.46,306.35,25.312,64.546
505.58,305.84,25.289,64.487
507.65,305.17,25.239,64.361
509.43,303.9,25.369,64.69
510.7,303.59,25.456,64.912
512.05,302.33,25.558,65.173
513.19,301.58,25.622,65.337
514.4,300.74,25.513,65.058
516.09,300.85,25.632,65.362
516.74,300.42,25.526,65.092
518.11,300.95,25.393,64.752
519.25,301.32,25.426,64.835
521.17,301.88,25.277,64.455
522.52,302.37,25.267,64.43
523.66,302.88,25.198,64.256
524.67,303.5,25.334,64.6
524.58,303.7,25.396,64.76
525.77,303.81,25.473,64.955
527.02,303.49,25.549,65.149
526.98,303,25.459,64.922
528.3,302.44,25.472,64.955
529.21,302.51,25.413,64.802
530.26,302.6,25.4,64.771
532.95,302.39,25.394,64.755
534.13,302.63,25.424,64.832
535.87,303.08,25.566,65.194
534.84,303.16,25.608,65.301
537.34,302.74,25.609,65.304
539.42,301.98,25.59,65.255
540.89,301.76,25.635,65.369
542.66,300.72,25.5,65.025
544.45,300.92,25.57,65.202
545.91,300.46,25.591,65.257
547.28,299.92,25.67,65.458
548.77,299.86,25.728,65.607
549.51,299.78,25.851,65.92
550.69,299.38,26.012,66.33
553.92,298.54,26.038,66.397
559.07,298.24,25.853,65.926
553.21,298.51,25.789,65.763
553.59,298.5,25.688,65.504
553.13,298.94,25.497,65.018
549.7,299.67,25.404,64.781
545.15,299.83,25.217,64.304
540.71,300.79,25.046,63.868
537.82,301.04,24.767,63.155
537.12,301.67,24.563,62.636
536.92,301.08,24.416,62.26
537.92,299.22,24.353,62.101
539.14,297.3,24.199,61.708
540.9,295.58,24.091,61.433
542.75,293.77,24.007,61.217
546.04,291.38,23.956,61.088
547.96,289.65,23.882,60.899
549.27,287.6,23.827,60.759
550.69,285.02,23.754,60.573
552.27,282.93,23.762,60.593
555.34,280.37,23.782,60.645
557.53,279.62,23.672,60.362
559.53,279.11,23.578,60.124
562.84,278.51,23.686,60.399
565.71,278.7,23.745,60.551
570.94,280.97,23.725,60.498
574.03,282.86,23.675,60.37
576.87,284.97,23.75,60.562
578.44,286.73,23.758,60.583
579.28,287.4,23.642,60.286
580.4,287.74,23.61,60.204
581.06,286.78,23.616,60.22
581.67,285.25,23.505,59.937
582.49,283.78,23.355,59.555
583.14,282.6,23.199,59.158
583.9,282.28,23.062,58.808
584.53,281.56,22.951,58.526
585.43,281.73,22.848,58.263
585.98,280.86,22.77,58.064
586.99,280.88,22.735,57.974
588.54,280.6,22.699,57.883
589.97,280.74,22.64,57.733
591.08,280.44,22.476,57.315
592.46,280.31,22.408,57.141
593.68,280.81,22.383,57.076
594.63,281,22.396,57.11
596.28,281.68,22.348,56.989
597.21,281.91,22.293,56.846
598.06,281.55,22.247,56.729
598.98,281.09,22.311,56.893
600.28,281.02,22.295,56.853
600.84,280.76,22.306,56.88
601.71,280.51,22.324,56.925
602.44,280.24,22.358,57.013
603.44,280.65,22.378,57.063
605.07,281.31,22.396,57.11
606.08,281.73,22.335,56.955
607.04,281.62,22.243,56.718
608.08,280.2,22.237,56.703
609.04,277.77,22.072,56.285
610.78,274.31,22.178,56.553
611.15,272.11,22.14,56.457
612.54,270.51,22.12,56.405
613.22,269.1,22.184,56.57
613.89,268.68,22.236,56.702
614.58,269.35,22.349,56.991
616.59,270.42,22.38,57.07
618.04,271.6,22.395,57.107
619.52,271.86,22.362,57.024
620.95,271.79,22.298,56.86
621.89,271.59,22.174,56.544
623.46,271.89,22.16,56.509
624.54,273.07,22.081,56.306
625.93,273.89,21.98,56.049
626.27,273.93,21.987,56.068
626.84,273.74,22.055,56.24
628.78,273.37,22.08,56.303
629.77,272.17,22.102,56.361
630.6,271.46,22.08,56.304
631.22,271.11,22.015,56.139
630.86,271.27,21.94,55.947
630.25,274.54,21.902,55.849
629.95,277.98,21.869,55.765
628.47,281.79,21.76,55.489
628.44,286.25,21.752,55.466
628.78,289.69,21.795,55.576
629.96,293.56,21.75,55.464
630.34,294.78,21.758,55.482
631.44,296.26,21.719,55.385
631.66,297.04,21.632,55.161
632.16,296.87,21.578,55.025
633.53,297.28,21.48,54.774
635.19,297.79,21.423,54.629
635.21,296.63,21.438,54.667
635.63,295.89,21.413,54.603
633.02,292.74,21.379,54.517
623.97,287.47,21.284,54.274
620.6,283.66,21.242,54.166
618.6,279.97,21.195,54.048
617.8,276.29,21.188,54.029
617.73,272.97,21.175,53.996
618.22,269.96,21.126,53.872
618.17,267.83,21.151,53.935
618.94,267.76,21.246,54.176
619.75,268.34,21.215,54.099
620.44,269.75,21.133,53.889
619.19,271.23,21.177,54.002
618.4,274.12,21.161,53.96
617.21,275.74,21.164,53.968
616.87,276.51,21.056,53.694
615.93,275.83,21.108,53.827
614.74,274.63,21.16,53.958
613.54,273.52,21.054,53.687
609.45,271.46,21.017,53.593
605.62,269.32,20.957,53.441
604.07,268.56,20.9,53.295
602.84,268.16,20.876,53.234
602.74,267.07,20.863,53.2
603.07,266.87,20.828,53.11
602.94,266.7,20.762,52.942
603.27,267.71,20.74,52.887
604.53,268.42,20.858,53.187
605.36,269.31,20.856,53.182
605.82,269.48,20.867,53.211
606.74,268.51,20.857,53.185
607.11,267.21,20.841,53.145
607.76,265.33,20.846,53.158
608.57,264.27,20.95,53.422
609.57,264.8,20.908,53.315
610.18,264.85,20.857,53.185
610.78,265.27,20.796,53.03
611.19,265.79,20.703,52.792
612.25,266.85,20.709,52.807
612.78,266.95,20.711,52.814
613.55,267.63,20.671,52.712
614.78,268.37,20.689,52.756
615.59,268.36,20.716,52.825
615.7,267.78,20.703,52.794
616.43,267.44,20.689,52.756
617.17,267.28,20.709,52.808
617.35,266.92,20.638,52.626
618.86,267.42,20.657,52.675
619.78,267.39,20.62,52.582
620.62,267.38,20.6,52.529
621.79,267.72,20.579,52.477
623.01,267.72,20.562,52.433
624.21,267.71,20.524,52.336
624.46,266.91,20.428,52.091
625.3,266.2,20.349,51.891
626.29,266.14,20.396,52.01
627.38,265.15,20.478,52.219
627.82,264.14,20.466,52.189
628.57,263.27,20.465,52.185
629.19,262.87,20.531,52.355
629.76,262.8,20.574,52.463
630.75,263.45,20.65,52.659
631.17,263.86,20.677,52.726
631.8,264.06,20.651,52.661
632.46,264.07,20.619,52.58
632.93,263.9,20.603,52.538
633.46,263.79,20.593,52.511
634.12,263.89,20.608,52.551
634.42,263.9,20.663,52.691
634.97,263.89,20.66,52.684
635.3,263.78,20.664,52.693
635.82,263.72,20.665,52.696
636.41,263.48,20.667,52.7
637.07,263.2,20.653,52.665
637.69,262.75,20.598,52.524
638.23,262.12,20.626,52.597
638.77,261.38,20.666,52.698
639.49,261.08,20.7,52.785
639.7,260.58,20.642,52.636
640.62,260.53,20.635,52.62
641.13,260.3,20.546,52.392
641.18,259.48,20.525,52.339
641.99,259.48,20.533,52.359
642.61,259.37,20.54,52.376
642.94,259.38,20.538,52.371
643.36,259.37,20.557,52.421
644.13,259.58,20.577,52.471
644.91,259.77,20.565,52.44
645.49,259.88,20.564,52.438
646.21,260.41,20.546,52.393
646.29,260.7,20.47,52.198
646.84,261.29,20.463,52.181
647.64,261.53,20.408,52.04
648.35,261.72,20.403,52.027
649.25,260.42,20.445,52.136
649.67,259.38,20.276,51.703
650.9,258.77,20.291,51.742
651.74,258.03,20.261,51.666
652.09,257.17,20.246,51.626
652.54,257.04,20.169,51.43
653.28,257.23,20.179,51.457
654.19,257.11,20.21,51.537
655.5,256.88,20.202,51.514
656.88,254.86,20.119,51.303
658.36,252.91,20.077,51.197
658.47,251.67,20.105,51.267
655.05,251.21,20.162,51.414
648.46,251.08,20.052,51.132
642.22,252.92,19.907,50.762
634.25,252.11,19.763,50.395
630.71,251.88,19.738,50.333
627.86,250.46,19.59,49.954
625.2,249.13,19.47,49.647
623.61,249.11,19.419,49.519
621.21,249.81,19.331,49.294
618.61,251.25,19.154,48.843
614.77,253.98,19.066,48.618
609.49,256.05,18.973,48.381
607.26,256.13,19.035,48.54
604.92,255.5,19.015,48.488
603.66,254.69,18.993,48.433
602.36,253.83,18.961,48.35
601.36,253.46,18.977,48.392
599.77,252.63,19.024,48.51
598.99,250.8,19.046,48.567
598.92,250.61,19.037,48.543
598.48,250.83,18.972,48.378
598.2,252.19,18.904,48.205
597.55,252.69,18.876,48.134
598.06,253.1,18.84,48.041
598.48,251.1,18.895,48.182
598.32,249.36,18.772,47.868
598.12,248.98,18.756,47.829
596.83,248.59,18.686,47.649
595.66,248.63,18.638,47.528
595.57,248.94,18.618,47.476
595.64,249.65,18.663,47.59
595.9,250.03,18.717,47.729
595.94,250.17,18.685,47.646
596.63,250.97,18.645,47.545
597.28,251.11,18.642,47.538
597.88,251.13,18.637,47.525
597.4,250.96,18.632,47.512
596.28,250.69,18.608,47.45
595.73,250.54,18.552,47.308
595.31,251.27,18.51,47.201
594.52,251.76,18.418,46.966
593.6,252.04,18.312,46.696
594.1,252.62,18.233,46.493
594.36,252.91,18.226,46.476
594.76,252.92,18.181,46.362
595.01,252.92,18.111,46.184
594.95,252.61,18.163,46.316
595.66,252.49,18.224,46.472
596.05,252.28,18.211,46.439
596.44,252.2,18.307,46.683
597.72,252.1,18.292,46.646
599.04,251.78,18.321,46.717
600.24,251.19,18.269,46.585
601.29,251.18,18.284,46.623
601.71,249.59,18.346,46.783
601.72,248.8,18.365,46.83
601.51,248.17,18.494,47.16
598.79,247.2,18.518,47.221
597.39,247.19,18.545,47.289
595.81,248.33,18.479,47.122
592.63,250.93,18.562,47.333
590.24,254.61,18.565,47.341
585.29,259.6,18.515,47.212
580.54,261.32,18.527,47.244
579.18,262.91,18.566,47.344
579.55,262.95,18.635,47.52
579.62,261.03,18.676,47.625
579.99,257.26,18.576,47.368
580.58,255.59,18.582,47.385
579.9,253.35,18.492,47.156
577.58,252.71,18.425,46.984
571.51,254.29,18.344,46.777
564.52,256.62,18.36,46.817
558.47,258.07,18.35,46.792
555.59,258.55,18.324,46.726
554.28,257.68,18.267,46.58
553.93,257.35,18.332,46.747
554.45,255.29,18.3,46.664
554.57,255.08,18.338,46.763
555.59,255.5,18.359,46.816
555.52,256.28,18.367,46.836
555.71,257.34,18.342,46.771
556.56,257.15,18.325,46.729
557.46,257.05,18.263,46.572
558.57,255.4,18.403,46.927
557.6,252.28,18.435,47.009
558.04,249.4,18.42,46.971
560.18,243.96,18.39,46.893
560.44,243.31,18.456,47.063
560.44,243.79,18.483,47.132
560.48,245.25,18.52,47.225
561.22,247.66,18.454,47.058
562.03,249.95,18.492,47.155
562.2,250.6,18.544,47.287
562.5,251.17,18.565,47.341
562.65,251.25,18.664,47.593
562.76,250.76,18.757,47.831
563.15,250.04,18.759,47.835
563.44,249.47,18.801,47.943
563.51,249.13,18.833,48.024
563.68,248.83,18.923,48.255
563.94,247.7,18.852,48.072
564.99,247.34,18.801,47.943
565.86,246.16,18.758,47.832
565.82,244.68,18.79,47.915
566.56,243.51,18.711,47.714
566.52,242.66,18.723,47.744
566.7,242.65,18.657,47.576
567.34,242.95,18.673,47.616
567.77,243.29,18.673,47.617
568.2,243.27,18.678,47.629
568.1,243.37,18.718,47.73
567.76,243.03,18.728,47.756
568.16,242.46,18.68,47.635
569.21,242.27,18.649,47.555
569.17,240.7,18.688,47.655
569.28,240.57,18.635,47.519
569.83,240.1,18.635,47.518
570.12,239.97,18.673,47.617
570.68,239.92,18.761,47.841
571.61,240.45,18.753,47.82
572.5,240.53,18.728,47.756
572.58,240.53,18.656,47.574
572.99,240.7,18.649,47.554
573.56,240.7,18.747,47.805
573.89,241.29,18.832,48.022
574.62,241.57,18.984,48.41
574.69,241.13,19.106,48.72
575.65,241.46,19.151,48.834
576.3,241.8,19.201,48.963
576.53,241.49,19.286,49.181
576.81,241.2,19.306,49.229
577.68,240.89,19.33,49.291
578.53,240.23,19.384,49.428
579.44,239.92,19.517,49.769
579.8,239.27,19.508,49.746
580.21,239.14,19.533,49.81
580.9,238.98,19.525,49.789
581.74,238.75,19.533,49.81
582.21,239.31,19.509,49.748
582.63,240.13,19.474,49.659
583.19,241.19,19.404,49.48
583.4,240.89,19.36,49.369
583.57,241.15,19.36,49.369
583.8,241.04,19.421,49.523
584.31,241.26,19.433,49.555
584.6,240.9,19.449,49.595
585.44,239.74,19.472,49.653
585.94,239.53,19.502,49.73
586.38,237.87,19.266,49.129
586.49,237.08,19.109,48.728
587.05,236,19.047,48.57
587.58,235.41,19.013,48.484
587.57,234.93,18.919,48.242
588.16,235.1,18.822,47.995
588.8,235.4,18.799,47.937
589.9,236.96,18.903,48.204
590.43,237.49,18.887,48.162
590.88,238.71,18.867,48.111
591.09,238.48,18.918,48.242
591.28,238.35,18.83,48.017
592.1,238.13,18.825,48.003
592.6,237.46,18.856,48.082
593.28,237.54,18.788,47.91
593.2,236.89,18.811,47.969
593.4,237.01,18.802,47.944
593.76,237.54,18.748,47.808
594.04,237.69,18.71,47.71
594.14,238.25,18.627,47.499
594.68,238.79,18.684,47.644
594.88,238.77,18.741,47.79
594.76,238.54,18.672,47.613
595.19,238.64,18.631,47.508
594.93,238.56,18.582,47.384
595.17,238.31,18.617,47.473
595.7,237.78,18.563,47.337
596.43,236.97,18.437,47.015
596.09,236.28,18.404,46.93
596.35,236.09,18.184,46.37
596.76,236.19,18.085,46.116
597,236.33,18.025,45.963
597.37,236.36,18.192,46.391
598.02,236.62,18.245,46.524
598.62,236.69,18.268,46.583
599.28,236.78,18.317,46.709
599.34,236.14,18.322,46.722
599.65,236.05,18.321,46.717
600.29,235.97,18.335,46.754
600.58,235.97,18.321,46.718
600.84,235.77,18.281,46.617
601.55,235.65,18.275,46.601
601.89,235.44,18.277,46.607
602.28,235.32,18.26,46.562
602.53,235.24,18.232,46.492
602.65,234.93,18.225,46.474
602.79,235.26,18.234,46.497
603.33,235.59,18.179,46.357
603.49,235.94,18.088,46.124
604,236.89,17.961,45.799
604.61,237.33,17.855,45.531
604.57,237.47,17.763,45.297
604.67,237.55,17.652,45.013
604.91,237.8,17.574,44.815
605.06,237.84,17.486,44.591
605.16,237.51,17.44,44.473
605.58,237.37,17.179,43.805
605.8,237.43,17.111,43.634
606.12,237.72,17.042,43.457
606.48,237.77,17.197,43.853
606.88,237.41,17.397,44.362
607.85,236.92,17.412,44.401
608.37,236.5,17.523,44.685
609.29,235.49,17.547,44.745
609.86,235.18,17.449,44.496
610.45,235.15,17.387,44.338
610.8,234.79,17.431,44.45
611.68,234.69,17.374,44.305
612.54,234.75,17.288,44.084
612.98,234.96,17.256,44.003
613.53,235.22,17.098,43.6
613.72,235.02,16.962,43.253
614.58,235.84,16.766,42.755
614.9,236.05,16.646,42.446
615.39,237.07,16.665,42.496
615.79,236.96,16.632,42.411
615.77,236.8,16.665,42.496
616.64,236.45,16.727,42.654
616.56,235.31,16.724,42.647
617.11,234.53,16.697,42.578
617.41,234.42,16.714,42.621
617.62,234.28,16.705,42.597
618,234.26,16.542,42.183
618.33,234.06,16.474,42.009
618.81,234.34,16.394,41.805
619.38,235.24,16.379,41.767
619.93,235.41,16.31,41.59
620.02,235.74,16.357,41.71
620.79,236.57,16.326,41.631
621.06,236.69,16.271,41.491
621.67,236.62,16.28,41.515
622.27,236.35,16.261,41.464
622.88,236.16,16.3,41.565
623.54,235.82,16.346,41.683
624.17,236.38,16.318,41.612
624.4,236.33,16.283,41.522
624.77,236.6,16.293,41.546
625.32,236.41,16.326,41.632
625.83,235.69,16.272,41.494
626.23,235.17,16.279,41.511
626.35,235.11,16.346,41.682
627.41,234.97,16.407,41.838
627.36,234.89,16.43,41.896
627.75,235.13,16.371,41.746
628.51,236.54,16.227,41.378
628.32,237.71,16.098,41.049
628.88,239.74,15.925,40.609
628.8,240.18,15.707,40.052
629.81,238.26,15.767,40.205
629.35,236.29,15.988,40.77
628.16,233.57,16.156,41.199
628.75,229.66,16.254,41.446
628.3,227.56,16.45,41.946
627.59,225.02,16.389,41.791
626.9,224.46,16.3,41.564
627.17,224.67,16.113,41.088
628.32,227.73,15.974,40.735
629.56,230.53,15.935,40.635
630.14,234.72,15.847,40.409
631.63,239.67,15.714,40.071
632.83,243.71,15.613,39.812
636.63,246.81,15.489,39.496
638.04,247.35,15.337,39.109
637.86,248.54,15.05,38.379
638.28,246.38,15,38.25
637.39,246.82,15.186,38.724
638.08,242.75,15.365,39.181
638.49,238.18,15.524,39.586
639.31,234.59,15.689,40.006
638.43,230.17,15.8,40.29
638.87,228.35,15.88,40.493
639.17,227.77,15.839,40.388
639.82,227.84,15.773,40.22
640.48,229.56,15.817,40.334
641.2,231.6,15.753,40.169
641.98,233.04,15.672,39.964
641.71,234.66,15.551,39.656
642.44,234.88,15.488,39.495
643.19,235.26,15.451,39.4
643.53,235.2,15.5,39.524
643.66,234.85,15.617,39.824
644.07,231.91,15.713,40.069
644.54,231.19,15.841,40.395
644.03,231.38,15.886,40.51
644.17,226.35,15.997,40.793
644.52,224.29,15.989,40.771
643.97,222.49,16.095,41.041
643.27,222.81,16.046,40.917
643.43,223.08,16.001,40.804
643.22,223.84,15.959,40.696
643.38,224.31,15.994,40.785
643.23,224.86,16.025,40.864
643.33,224.74,15.967,40.715
643.65,224.84,15.975,40.737
643.34,224.05,15.964,40.707
643.3,222.29,15.999,40.798
643.93,220.98,16.02,40.852
643.77,220.19,16.01,40.825
643.63,220.03,16.033,40.884
644.04,220.65,16.007,40.817
643.66,220.81,16.032,40.882
644.2,221.14,16.014,40.836
644.03,221.18,15.996,40.79
644.06,221.02,16.028,40.872
644.57,220.74,16.125,41.118
644.96,221.52,16.165,41.221
644.99,222.09,16.177,41.252
645.12,221.81,16.233,41.394
644.87,222.09,16.283,41.521
644.97,222.09,16.362,41.723
645.3,222.49,16.469,41.997
645.23,221.58,16.564,42.239
645.34,221,16.572,42.258
645.08,220.28,16.563,42.236
645.1,219.2,16.367,41.735
645.19,219.28,16.36,41.718
645.14,219.04,16.351,41.694
645.27,219.13,16.322,41.62
644.9,218.87,16.345,41.679
645.11,218.81,16.356,41.708
645.1,218.8,16.345,41.681
645.32,219.09,16.33,41.641
645.09,218.88,16.381,41.772
645.26,219.49,16.351,41.695
645.74,219.67,16.35,41.694
646,219.92,16.325,41.63
645.95,219.63,16.329,41.638
646.4,219.31,16.243,41.421
646.75,218.94,16.178,41.253
647.06,219.16,16.117,41.098
647.01,219.46,16.063,40.96
647.47,219.91,16.029,40.873
647.5,219.8,16.015,40.839
647.63,220.24,15.971,40.727
648.02,220.37,15.961,40.7
648.32,219.72,16,40.8
648.27,217.89,16.095,41.042
648.3,217.7,16.119,41.104
647.95,216.36,16.165,41.222
648.02,214.9,16.21,41.335
647.64,214.38,16.271,41.49
648.45,214.52,16.303,41.573
648.57,215.17,16.331,41.645
649.17,216.12,16.38,41.77
650.11,217.26,16.37,41.743
651.67,217.63,16.416,41.86
652.25,217.04,16.395,41.807
653.16,216.65,16.414,41.857
653.54,216.92,16.434,41.907
654.54,217.29,16.451,41.95
655.15,217.61,16.39,41.794
655.68,217.51,16.38,41.768
656.14,217.92,16.396,41.811
656.44,217.9,16.426,41.886
657.85,217.66,16.505,42.089
658.27,217.19,16.543,42.184
659.97,218.35,16.554,42.212
660.85,218.73,16.596,42.32
661.17,218.51,16.63,42.407
662.1,219.13,16.712,42.616
661.89,219.82,16.699,42.583
661.21,220.91,16.729,42.66
661.63,220.99,16.725,42.648
662.07,220.69,16.742,42.691
662.87,220.81,16.728,42.656
663.96,220.45,16.748,42.708
664.11,220.06,16.751,42.716
665.8,220.49,16.746,42.703
667.17,221.14,16.746,42.703
667.67,221.18,16.716,42.627
667.87,221.16,16.698,42.581
667.67,220.94,16.729,42.659
667.46,220.85,16.716,42.625
667.42,220.3,16.762,42.742
667.84,220.28,16.822,42.897
668.3,219.93,16.823,42.898
668.35,219.54,16.876,43.035
668.72,219.46,16.868,43.014
669.16,219.03,16.81,42.866
669.64,218.83,16.831,42.919
670.12,218.29,16.873,43.027
670.35,217.93,16.885,43.057
670.81,217.76,16.865,43.006
