163.5,58.5,136,69
174.85,32.929,133.91,67.937
178.17,18.861,131.07,66.5
189.38,43.769,135.01,68.498
168.92,65.176,136.64,69.322
157.16,109.23,125.22,63.532
155.2,109.78,126.27,64.061
158.95,108.59,119.69,60.725
160.15,110.11,117.51,59.618
162.65,108.51,115.18,58.438
164.92,107.84,113.84,57.759
166.25,105.73,114.1,57.887
169.77,104.64,111.88,56.761
170.27,103.71,111.45,56.547
171.25,102.98,109.43,55.519
170.91,101.76,108.61,55.103
169.62,101.48,106.47,54.019
167.14,102.9,104.34,52.939
155.78,96.008,102.29,51.897
147.69,100.97,102.4,51.954
133.66,93.376,101.3,51.396
126.1,94.994,100.96,51.221
119.8,92.716,100.41,50.944
116.3,88.987,100.15,50.812
117.24,87.07,99.911,50.69
124.93,85.713,99.26,50.36
141.01,88.961,97.879,49.659
153.29,91.242,98.358,49.902
167.74,98.801,96.307,48.862
174.46,104.88,95.045,48.221
175.32,107.12,94.697,48.045
171.72,108.87,93.297,47.334
171.54,113.03,92.663,47.013
179.4,130.34,92.301,46.829
155.9,114.32,91.73,46.539
153.27,116.48,91.356,46.35
152.98,116.51,91.796,46.573
154.49,116.65,91.053,46.196
155.99,120.42,90.596,45.964
154.56,124.09,89.62,45.469
184.61,100.64,89.576,45.447
181.69,102.35,89.132,45.222
178.81,113.38,89.727,45.523
177.74,108.34,89.533,45.425
175.98,109.21,89.881,45.601
174.33,111.35,90.642,45.987
172.71,111.61,90.736,46.035
171.66,112.95,90.984,46.161
136.27,120.91,90.013,45.668
139.12,119.08,89.577,45.447
140.25,114.23,89.758,45.539
144.77,122.61,88.425,44.862
149.99,117.72,87.993,44.643
157.56,130.89,86.811,44.044
164.09,133.7,85.298,43.276
174.45,134.69,84.466,42.854
169.43,114.65,84.285,42.762
173.07,114.2,84.628,42.936
177.06,115.37,84.991,43.12
181.23,116.38,84.269,42.754
182.71,128.63,83.765,42.498
183.68,128.26,83.102,42.162
186.03,128.21,82.655,41.935
194.28,125.75,82.534,41.874
198.96,126.55,82.13,41.669
205.43,125.04,82.982,42.101
210.09,123.21,82.851,42.035
211.25,124.41,82.681,41.948
209.01,122.99,82.629,41.922
206.44,123.39,82.216,41.713
205.25,131.55,81.898,41.551
194.77,187.31,82.487,41.85
186.73,187.85,82.734,41.975
180.38,188.22,83.255,42.24
195.51,187.67,83.697,42.464
169.64,192.7,84.266,42.752
159.01,183.21,84.078,42.657
156.7,183.63,83.789,42.511
154.44,183.83,83.904,42.569
156.69,191.43,84.703,42.974
166.02,188.26,84.548,42.896
159.78,176.67,84.859,43.053
186.77,182.11,85.093,43.172
171.25,179.9,84.39,42.816
181.11,179.01,83.466,42.347
188.19,180.81,82.779,41.998
196.07,184.18,82.24,41.725
201.29,178.97,82.253,41.731
204.83,181.33,81.923,41.564
207.24,183.21,81.691,41.446
209.13,179.06,81.53,41.365
208.54,185.1,81.604,41.402
205.98,186.98,81.421,41.309
201.78,186.34,81.505,41.352
199.08,186.09,81.186,41.19
193.83,182.91,81.124,41.159
185.17,187.62,81.296,41.246
178.2,187.72,81.373,41.285
175.43,186.71,81.373,41.285
170.68,192.34,81.04,41.116
167.21,190.03,80.811,41
164.87,192.08,80.661,40.924
155.05,204.76,80.721,40.954
153.32,205.41,81.044,41.118
153.35,199.85,80.941,41.066
161.28,187.63,81.616,41.408
152.65,211.25,81.907,41.556
155.6,212.43,82.352,41.781
160.72,214.09,82.18,41.694
162.22,214.49,82.2,41.704
163.89,214.02,81.885,41.544
167.47,212.3,81.541,41.37
168.72,210.21,81.677,41.439
164.31,183.01,82.385,41.798
162.32,179.2,82.844,42.031
153.88,187.11,82.914,42.067
141.72,184.61,83.282,42.253
137.01,191.24,83.6,42.415
131.11,194.23,83.593,42.411
128.05,198.41,83.361,42.294
124.06,199.05,84.212,42.725
125.5,201.76,84.001,42.618
127.78,206.25,83.979,42.607
129.47,209,84.062,42.649
133.43,211.42,84.214,42.726
139.45,213.19,84.519,42.881
146.84,215.65,84.711,42.978
155.38,217.09,85.232,43.243
162.33,217.61,85.01,43.13
169.27,217.79,85.07,43.16
174.68,219.07,85.512,43.385
180.78,217.96,85.939,43.601
183.86,217.01,86.248,43.758
186.42,216.6,86.12,43.693
187.97,214.18,86.231,43.75
191.73,212.41,86.178,43.723
196.58,208.26,85.965,43.614
201.92,203.7,85.586,43.422
204.37,200.08,85.455,43.356
198.17,216.1,85.24,43.247
202.62,217.28,85.074,43.162
200.07,210.18,85.037,43.144
203.13,209.23,85.142,43.197
205.84,209.98,85.498,43.378
208.84,208.9,85.495,43.376
223.66,212.28,85.89,43.577
225.72,214.77,85.622,43.441
229.94,221.33,85.552,43.405
229.5,220.51,85.294,43.274
229.74,202.43,85.539,43.398
227.65,198.92,85.562,43.41
222.37,204.78,85.978,43.621
220.2,202.09,86.423,43.847
217.12,209.36,86.153,43.71
216.57,214.92,85.966,43.615
217.17,214.14,85.531,43.395
221.2,202.51,85.306,43.28
228.61,209.65,85.319,43.287
223.11,207.76,85.131,43.192
241.39,218,85.651,43.455
251.42,219.59,85.404,43.33
323.38,172.24,85.715,43.488
314.86,169.83,84.977,43.113
304.21,168.86,84.928,43.088
295.36,165.95,85.826,43.544
290.89,162.07,86.589,43.931
278.62,167.02,88.004,44.649
272.86,169,88.221,44.759
269.9,167.72,88.374,44.837
269.38,167.37,88.275,44.786
267.52,167.42,87.615,44.451
251.89,175.12,87.732,44.511
259.42,177.55,87.521,44.404
256.25,185.19,87.179,44.231
272.98,170.26,87.561,44.424
278.65,173.31,87.408,44.347
288.6,176.36,87.748,44.519
303.17,180.19,87.616,44.452
323.75,185.02,87.666,44.478
342.37,184.78,87.982,44.638
358.58,181.09,88.256,44.777
389.16,192.71,89.168,45.24
416.66,16.126,89.183,45.247
402.73,-10.813,89.633,45.476
402.13,-11.482,90.287,45.807
414.41,3.6698,90.564,45.948
415.36,4.4678,90.892,46.114
415.43,2.6218,90.857,46.097
417.87,4.0436,90.89,46.113
417.05,2.4367,90.791,46.063
419.58,5.4201,90.931,46.134
417.83,2.8713,91.136,46.238
421.26,6.1979,92.068,46.711
418.79,3.6947,91.23,46.286
415.99,1.2112,90.834,46.085
417.62,3.7193,90.054,45.689
416.48,1.7049,89.1,45.205
417.97,3.1585,88.064,44.68
420.54,4.6206,88.906,45.107
418.35,2.161,88.428,44.864
418.25,3.4389,87.621,44.455
417.8,2.0034,86.461,43.866
418.89,2.7689,85.793,43.527
420.31,3.7176,85.885,43.574
419.5,2.7872,84.689,42.967
420.97,3.5404,84.448,42.845
421.23,3.3163,84.946,43.098
421.74,3.6265,85.399,43.327
422.07,3.3614,85.787,43.524
421.65,2.7221,85.73,43.495
422.32,3.5456,85.66,43.46
422.48,2.6434,85.892,43.577
424.05,3.126,87.318,44.301
424.21,2.2216,88.115,44.706
424.44,2.6867,89.371,45.343
423.72,1.7047,90.471,45.901
423.47,1.9742,91.575,46.461
422.1,1.056,90.205,45.766
422.03,1.8584,88.914,45.111
422.18,1.731,88.123,44.709
422.15,2.178,87.65,44.469
420.94,1.214,87.06,44.17
419.59,1.5431,84.95,43.1
420.08,1.8136,83.798,42.515
419.5,1.6742,82.752,41.985
419.51,1.7392,81.551,41.375
419.12,1.5499,81.748,41.475
418.43,1.3856,82.707,41.961
418.05,0.78171,83.591,42.41
417.96,0.49606,84.039,42.637
417.75,0.64529,84.524,42.883
417.07,0.33724,84.799,43.023
417.16,0.1608,86.014,43.64
417.92,0.51284,86.591,43.932
417.5,0.37036,86.767,44.021
418.97,0.3667,87.093,44.187
419.83,0.69603,87.019,44.149
421.45,1.1317,87.259,44.271
422.73,1.5403,87.221,44.252
423.51,1.4831,87.601,44.445
424.26,1.5357,87.655,44.472
424.67,1.3496,88.557,44.93
426.05,1.8339,89.397,45.356
426.67,1.9715,89.066,45.188
427.15,2.0545,88.959,45.133
427.66,2.6848,88.431,44.866
427.42,2.6512,87.348,44.316
426.93,3.7829,86.321,43.795
426.73,3.5326,84.927,43.088
426.76,4.087,83.839,42.536
426.22,4.0036,82.515,41.864
425.82,4.1198,81.801,41.502
425.63,4.3871,80.887,41.038
425.65,4.825,80.249,40.715
425.53,4.8133,79.108,40.136
425.92,5.4459,78.12,39.634
425.28,4.5894,76.905,39.018
425.08,5.1546,75.818,38.467
425.67,5.8673,74.875,37.988
425.3,5.539,73.878,37.482
425.72,6.0304,73.376,37.228
425.68,6.1188,73.401,37.24
425.16,5.9065,73.58,37.331
424.84,5.7451,73.047,37.061
424.97,5.712,72.982,37.028
424.21,5.493,73.51,37.296
423.72,5.3805,74.244,37.668
422.86,5.1699,74.736,37.917
422.4,5.5012,75.575,38.343
422.32,5.3631,75.898,38.507
423.14,5.9089,76.582,38.854
422.76,5.4027,77.665,39.404
422.83,5.2573,78.165,39.657
422.43,4.6755,77.924,39.535
422.88,5.0372,78.099,39.624
422.84,4.9493,78.346,39.749
423.06,5.094,78.788,39.973
421.94,4.3941,78.794,39.976
421.41,4.7821,78.129,39.639
420.98,5.0837,77.447,39.293
420.52,5.2146,76.246,38.684
421.19,5.7719,74.344,37.719
421.87,6.113,73.149,37.112
422.48,6.1265,73.188,37.132
422.74,5.6667,73.703,37.393
422.5,5.1697,73.629,37.356
422.83,4.686,73.898,37.493
423.01,4.5581,75.014,38.059
422.76,4.0159,75.562,38.337
422.47,3.9014,76.146,38.633
422.7,3.8372,76.165,38.642
422.86,3.9438,75.974,38.545
423.54,4.1088,75.622,38.367
423.65,3.9558,75.443,38.276
423.85,4.2016,75.239,38.173
424.6,4.6633,75.414,38.262
424.71,4.4674,74.738,37.919
425.29,4.5569,75.499,38.305
425.45,4.2576,76.517,38.821
425.85,4.3629,77.563,39.352
425.74,3.9699,78.731,39.944
426.27,3.8597,79.541,40.355
426.87,3.7802,80.895,41.042
427.39,3.797,81.556,41.378
427.34,3.4871,82.978,42.099
427.9,3.5459,82.342,41.776
428.54,3.4437,82.241,41.725
429.1,3.6071,81.922,41.564
429.16,3.186,81.486,41.342
430.16,3.8299,80.499,40.842
430.03,3.7421,79.792,40.483
430.43,4.3104,78.875,40.017
430.51,4.8546,78.279,39.715
430.87,5.133,77.494,39.317
431.21,5.0729,76.099,38.609
431.5,5.1797,75.234,38.17
431.72,5.4256,75.708,38.411
431.96,5.4175,74.961,38.031
432.05,5.2457,74.963,38.033
432.36,5.3438,74.125,37.607
432.46,5.4975,74.074,37.582
432.43,5.2621,74.41,37.752
432.48,5.1177,74.936,38.019
432.34,4.5719,75.444,38.277
432.5,4.2891,75.477,38.293
432.5,4.0635,75.694,38.404
432.42,3.9747,76.596,38.861
432.4,3.7512,77.266,39.201
431.95,3.2225,77.811,39.477
431.76,3.1877,78.293,39.722
431.63,3.1664,78.644,39.9
431.15,2.5765,78.711,39.934
431.09,2.5537,78.314,39.733
431.42,2.8409,78.512,39.833
431.03,2.5699,79.126,40.145
431.43,2.4167,78.432,39.792
431.53,2.72,77.665,39.404
431.39,2.8578,77.89,39.518
431.49,3.0012,78.162,39.656
431.7,2.8145,77.358,39.248
431.87,3.1864,76.902,39.016
431.84,3.2513,76.766,38.948
432.18,3.3553,76.543,38.834
432.86,3.5672,77.562,39.351
432.92,3.4548,78.232,39.691
433.69,3.3678,78.784,39.971
433.27,3.0723,79.557,40.364
433.31,3.0122,80.972,41.081
432.93,2.8043,81.482,41.34
432.6,2.6542,82.526,41.87
432.25,2.2322,82.832,42.025
432.17,2.3276,83.755,42.493
431.73,1.9686,83.989,42.612
431.81,2.094,84.089,42.663
432.02,2.2502,84.19,42.714
431.47,2.0129,84.326,42.783
431.73,2.3103,83.95,42.592
431.58,2.2922,83.637,42.433
431.06,2.5024,83.154,42.188
430.77,2.6366,81.808,41.506
431.18,3.1004,80.266,40.723
431.45,3.5225,79.547,40.358
431.19,3.4764,79.562,40.366
430.82,3.5386,78.856,40.008
430.82,3.6174,77.273,39.205
430.69,3.6851,76.428,38.776
430.27,3.925,76.618,38.872
429.53,3.5976,75.878,38.497
429.22,4.0855,75.229,38.168
428.9,3.9989,74.92,38.011
428.06,3.5228,74.159,37.625
427.62,3.6362,74.35,37.721
427.1,3.4053,73.952,37.52
427.04,3.8508,75.111,38.108
426.17,3.7185,75.614,38.363
425.12,3.1224,75.809,38.462
425,3.5125,76.413,38.769
255.99,104.96,77.019,39.076
252.24,99.614,77.871,39.508
247.09,100.12,78.654,39.905
242.5,99.945,79.318,40.242
240.16,99.944,79.93,40.553
237.81,100.89,79.472,40.32
237.15,101.22,80.368,40.775
237.43,101.69,81.19,41.192
235.54,100.36,82.64,41.928
234.18,99.657,83.148,42.185
234.15,97.689,83.095,42.158
222,117.9,83.477,42.352
258.31,115.68,81.828,41.515
261.05,118.69,81.906,41.555
265.03,109.61,81.433,41.315
267.84,103.23,81.098,41.145
238.21,118.85,80.355,40.768
240.83,121.78,79.744,40.458
240.79,122.06,78.805,39.982
242.47,126.06,78.207,39.679
241.96,126.9,77.823,39.484
247.52,131.83,77.013,39.073
247.83,133.98,76.73,38.929
248.2,133.04,76.463,38.794
246.56,133.32,76.255,38.688
245.07,131.4,75.819,38.467
242.4,130.12,75.56,38.336
235.63,126.11,75.068,38.086
236.08,122.99,75.258,38.182
231.72,126.52,75.37,38.239
229.61,121.2,75.628,38.37
255.91,100.63,75.767,38.441
263.84,101.96,74.839,37.97
259.66,97.915,74.859,37.98
253.51,101.62,75.081,38.093
273.51,110.02,75.52,38.315
287.13,103.05,75.724,38.419
286.57,105.32,76.06,38.589
288.28,105.16,76.348,38.735
299.5,102.16,75.804,38.46
304.84,101.98,75.415,38.262
295.5,108.78,76.072,38.595
299.87,107.75,76.138,38.629
303.04,105.29,75.768,38.441
333.16,98.154,74.936,38.019
345.1,97.071,74.572,37.834
358.07,97.582,75.446,38.278
362.9,94.913,75.848,38.481
386.59,94.017,75.935,38.526
437.93,78.138,75.799,38.457
438.84,99.019,76.062,38.59
435.24,99.281,75.989,38.553
437.93,109.79,75.855,38.485
440.73,115.86,76.48,38.802
440.7,106.24,77.661,39.402
440.83,108.84,78.181,39.666
439.87,108.06,78.348,39.75
440.11,110.16,79.08,40.121
440.7,110.55,78.949,40.055
440.59,111.63,78.695,39.926
440.92,111.47,78.176,39.663
442.58,112.58,78.29,39.721
444.37,113.3,78.541,39.848
445.21,113.44,78.811,39.985
448.05,112.97,78.62,39.888
395.15,100.63,78.563,39.859
394.39,98.985,78.349,39.751
395.55,99.714,77.869,39.507
395.97,100.62,77.892,39.519
402.61,112.27,79.2,40.182
395.3,100.19,78.349,39.75
400.87,115.08,79.856,40.515
399.7,117.55,80.68,40.933
399.74,119.7,81.103,41.148
404.12,131.34,81.274,41.234
403.09,130.85,81.769,41.486
402.7,131.47,82.188,41.698
403.85,133.17,82.412,41.812
403.79,133.34,82.358,41.785
403.56,132.58,82.37,41.791
403.66,131.25,82.502,41.858
400.85,123,82.774,41.996
399.89,115.69,83.09,42.156
399.73,112.37,83.838,42.536
393.9,101.85,83.432,42.329
393.83,101.51,82.631,41.923
392.91,99.703,81.924,41.565
393.86,100.42,81.486,41.342
394.51,99.723,81.254,41.224
394.53,98.189,81.012,41.101
394.97,97.534,81.087,41.14
395.31,98.372,81.01,41.1
395.56,99.048,80.795,40.992
395.95,98.545,80.278,40.729
396.54,99.445,80.301,40.741
396.99,99.56,80.335,40.758
397.32,99.002,79.973,40.575
397.19,98.334,79.86,40.517
396.65,99.364,79.819,40.496
396.85,99.708,79.676,40.424
397.15,100.44,79.355,40.261
397.17,101,79.062,40.113
397.81,101.87,78.623,39.889
397.4,101.36,78.23,39.69
397.91,102.46,77.708,39.425
398.1,102.46,77.625,39.383
398.19,102.27,77.271,39.204
398.45,101.63,76.002,38.56
399,100.95,74.953,38.028
399.22,100.28,74.813,37.957
399.54,99.655,74.902,38.002
399.79,99.063,74.657,37.877
400.48,99.172,75.209,38.157
400.63,99.486,75.324,38.216
400.8,99.348,75.154,38.13
400.89,98.974,75.533,38.322
400.84,98.745,74.711,37.905
401.16,99.122,74.979,38.041
401.16,98.984,74.984,38.044
401.53,98.955,73.9,37.494
402.26,99.76,73.301,37.189
402.37,99.799,72.947,37.01
402.22,99.541,71.774,36.415
402.77,99.679,71.026,36.035
403.36,99.888,70.266,35.649
403.51,99.909,70.544,35.791
403.56,100.41,70.671,35.855
404.01,100.65,70.525,35.781
404.04,100.49,71.299,36.174
404.45,99.782,71.764,36.41
404.29,98.44,72.981,37.027
404.23,97.081,74.008,37.548
404.34,97.229,75.341,38.224
404.29,96.553,76.606,38.866
404.44,96.087,78.421,39.787
405.03,94.821,79.815,40.494
405.02,92.544,81.614,41.407
407.12,90.473,83.901,42.568
408.35,89.174,85.578,43.418
409.52,88.512,87.131,44.206
411.26,87.144,88.177,44.737
412.22,86.85,89.4,45.357
414.57,86.739,89.52,45.418
416.19,87.147,89.645,45.482
416.77,86.559,89.963,45.643
417.46,86.406,90.445,45.887
418.35,85.751,90.348,45.838
419.43,85.659,90.206,45.766
420.34,85.862,89.249,45.281
420.61,87.25,88.084,44.69
420.94,88.349,86.353,43.811
420.98,89.889,84.537,42.89
420.96,90.347,82.824,42.021
421.29,90.995,81.141,41.167
420.94,89.652,79.39,40.279
421.09,89.5,77.587,39.364
421.17,89.086,76.261,38.691
420.71,88.428,75.343,38.225
420.8,88.296,74.725,37.912
420.51,88.219,74.715,37.907
419.99,88.034,74.798,37.949
419.02,87.753,75.054,38.079
418.84,87.788,75.049,38.076
418.22,87.569,75.401,38.255
417.8,87.553,75.744,38.429
271.42,100.18,76.17,38.645
272.81,91.903,74.32,37.706
257.72,108.3,73.333,37.206
233.64,129.55,73.257,37.167
232.44,127.7,72.579,36.823
229.06,124.25,72.111,36.586
206.79,132.75,71.779,36.417
226.81,113.13,71.523,36.287
222.96,109.63,71.505,36.278
227.82,101.57,70.108,35.569
234.18,89.424,68.926,34.97
225.57,93.172,67.824,34.411
222.08,92.421,67.037,34.012
222.35,92.009,66.593,33.786
222.59,92.949,65.653,33.309
223.69,94.132,65.194,33.077
216.77,100.23,64.633,32.792
221.96,104.09,63.677,32.307
228.88,102.82,63.362,32.147
233.91,95.4,62.815,31.869
238.25,92.493,63.141,32.035
243,88.557,62.718,31.82
247.53,90.191,63.422,32.177
253.09,83.365,63.715,32.326
258.4,75.531,63.504,32.219
262.83,68.376,64.38,32.663
264.17,63.591,64.323,32.635
265.21,62.232,64.146,32.545
270.09,69.274,63.95,32.445
271.49,68.41,64.178,32.561
193.19,121.86,63.629,32.282
192.14,117.85,63.594,32.265
194.61,119.31,63.196,32.063
186.57,118.23,63.668,32.302
195.22,120.25,63.734,32.336
188.75,119.81,64.315,32.63
224.73,95.138,64.059,32.501
233.59,94.887,63.962,32.451
241.77,94.573,63.83,32.385
251.13,95.489,64.458,32.703
260.6,94.63,65.002,32.979
271.68,111.67,64.97,32.963
276.08,106.34,65.4,33.181
261.87,120.46,64.922,32.939
276.43,105.31,65.257,33.108
279.46,96.623,66.027,33.499
286.93,95.025,66.184,33.579
258.89,97.963,66.848,33.916
248.59,98.454,67.325,34.158
236.97,95.859,66.833,33.908
228.45,106.66,66.224,33.599
220.34,88.964,66.323,33.649
208.55,109.43,66.053,33.512
203.33,107.42,66.58,33.78
198.74,105.72,66.923,33.953
194.91,102.57,66.932,33.958
192.28,102.08,66.703,33.842
237.23,85.259,66.449,33.713
234.24,86.647,66.225,33.6
232.43,86.536,65.677,33.321
231.46,86.527,65.391,33.176
233.34,86.711,65.599,33.282
236.9,85.115,66.152,33.562
238.53,85.637,66.699,33.84
240.99,85.765,66.83,33.907
244.41,85.381,67.335,34.163
249.86,83.879,68.266,34.635
255.98,81.205,68.457,34.732
260.62,78.883,69.278,35.148
263.9,78.323,69.844,35.435
266.63,76.698,69.793,35.41
268.75,74.494,69.541,35.282
271.93,72.815,68.836,34.924
273.96,72.781,68.744,34.878
274.77,72.992,68.591,34.8
277.92,75.067,68.645,34.827
281.72,74.587,68.67,34.84
283.71,71.625,67.935,34.467
243.44,94.206,67.726,34.361
246.94,93.153,68.037,34.519
249.59,94.69,68.582,34.795
250.65,94.624,69.147,35.082
251.01,93.337,69.438,35.23
251.3,94.588,69.955,35.492
251.16,95.271,70.145,35.588
250.65,95.533,70.369,35.702
249.7,94.586,70.159,35.595
249.49,95.803,69.053,35.034
248.69,95.427,68.016,34.508
248.81,96.148,66.763,33.872
246.55,94.547,65.89,33.43
244.5,94.641,65.754,33.36
238.19,89.517,65.499,33.231
233.17,90.03,66.204,33.589
228.46,93.346,66.532,33.755
219.59,91.114,66.501,33.74
209.22,84.747,66.862,33.923
202.94,83.359,66.458,33.718
197.46,82.86,66.045,33.508
194.27,82.646,65.888,33.428
193.1,81.444,65.84,33.404
193.97,77.936,66.048,33.51
196.21,74.781,65.956,33.463
199.13,65.402,65.271,33.115
201.02,64.645,65.187,33.073
203.51,65.096,64.845,32.899
204.42,65.495,64.553,32.751
204.28,64.083,64.849,32.901
203.87,61.47,65.364,33.163
204.79,69.32,65.627,33.296
202.85,68.423,65.338,33.15
200.07,56.152,65.327,33.144
193.94,66.833,65.31,33.135
193.7,78.778,65.215,33.087
205.48,52.998,65.05,33.003
200.32,65.261,65,32.978
203.73,62.516,64.806,32.879
207.62,56.584,64.747,32.85
211.15,58.525,64.909,32.932
214.46,59.085,64.889,32.922
217.31,59.709,64.842,32.898
218.82,60.404,64.637,32.794
221.19,62.122,64.262,32.603
224.07,64.528,64.051,32.497
226.5,67.5,64.149,32.546
228.07,72.668,64.764,32.858
231.03,74.047,65.053,33.005
234.04,79.632,65.714,33.34
236.96,80.558,66.154,33.563
239.82,77.252,66.231,33.602
241.87,75.19,65.932,33.451
243.74,76.723,65.883,33.426
245.13,78.698,65.816,33.392
245.53,79.335,65.994,33.482
246.05,80.453,65.91,33.44
244.87,81.053,66.004,33.488
244.59,80.983,65.807,33.387
243.62,80.185,65.884,33.427
243.7,78.522,65.513,33.238
243.93,79.135,65.353,33.157
244.48,79.09,65.289,33.124
244.16,78.846,65.301,33.131
244.11,79.132,65.27,33.115
244.11,80.098,64.607,32.779
244.01,80.327,63.954,32.447
243.52,81.478,63.236,32.083
243.5,84.946,62.864,31.894
244.15,94.481,63.213,32.071
243.94,95.376,63.043,31.985
244.95,96.866,63.328,32.13
245.08,95.655,63.738,32.338
245.64,96.833,63.689,32.313
245.5,96.64,64.283,32.614
244.51,96.617,64.084,32.513
243.45,95.98,63.441,32.187
241.79,95.976,62.768,31.845
239.65,95.087,62.087,31.5
237.81,94.708,61.029,30.963
234.24,95.467,61.141,31.02
230.4,94.255,61.022,30.96
228.09,93.12,60.508,30.699
225.8,91.589,59.876,30.378
224.3,90.535,59.562,30.219
224.19,91.311,59.421,30.148
223.29,90.661,59.157,30.014
223.39,91.92,59,29.934
223.61,92.465,58.877,29.872
224.12,93.134,58.631,29.746
224.14,93.097,58.99,29.929
225.05,94.699,58.871,29.868
224.42,95.828,59.03,29.949
223.82,98.062,58.965,29.916
223.21,100.77,58.734,29.799
222.19,102.22,58.249,29.553
221.94,102.79,57.787,29.318
220.99,111.87,58.078,29.466
219.85,105.79,58.067,29.461
220.67,105.95,58.402,29.631
222.86,107.02,58.681,29.772
224,106.65,58.924,29.895
227.67,109.67,59.12,29.995
229.5,108.23,59.101,29.985
231.87,107.97,59.271,30.071
267.21,86.264,59.711,30.295
267.76,85.67,60.188,30.537
267.54,84.928,60.67,30.781
266.85,83.895,60.92,30.908
267.58,84.387,60.72,30.807
267,84.479,60.853,30.874
268.94,84.262,60.75,30.822
272.75,83.689,60.344,30.615
278.58,84.797,60.422,30.655
281.66,84.916,60.2,30.542
254.83,80.526,60.123,30.504
258.3,78.973,60.447,30.668
260.7,77.531,60.715,30.804
262.11,77.227,60.934,30.915
264.13,78.072,61.599,31.252
265.94,77.044,62.401,31.659
267.32,75.941,63.234,32.082
267.91,80.843,63.924,32.432
268.68,102.11,63.784,32.361
264.55,95.293,63.877,32.408
264.55,90.797,63.852,32.396
264.14,89.316,64.397,32.672
263.64,87.296,64.882,32.918
263.3,86.708,65.491,33.227
263.21,86.5,65.656,33.311
264.26,85.944,66.171,33.572
266.75,87.14,67.167,34.077
269.53,87.151,67.578,34.286
272.17,88.045,67.972,34.486
273.78,88.357,68.219,34.611
274.82,89.136,68.48,34.743
274.47,88.673,68.879,34.946
273.72,88.956,69.036,35.025
272.62,89.218,69.127,35.072
270.84,88.762,69.228,35.123
268.58,88.612,69.442,35.232
267.51,87.569,69.461,35.241
266.96,87.264,69.606,35.315
266.36,86.762,69.603,35.313
265.98,86.611,69.619,35.322
265.7,86.621,69.654,35.339
265.92,86.887,69.568,35.296
266.66,87.199,69.365,35.193
267.81,87.805,69.506,35.264
268.88,88.215,70.005,35.517
269.94,88.668,69.984,35.507
270.24,88.671,69.698,35.361
270.07,88.218,69.761,35.393
269.57,88.175,69.876,35.452
269.15,88.447,69.896,35.462
268.75,88.441,69.795,35.411
267.84,87.919,69.491,35.257
267.74,87.999,69.536,35.279
266.94,87.391,69.5,35.261
266.79,87.571,69.491,35.256
266.4,87.457,69.446,35.234
266.23,87.325,69.344,35.182
266.32,87.445,69.16,35.088
266.7,87.805,68.725,34.868
267.29,88.716,68.803,34.907
267.84,89.887,68.422,34.714
267.86,90.482,68.167,34.585
267.79,91.398,67.92,34.459
267.39,91.836,67.712,34.354
266.24,92.199,67.124,34.056
267.02,102.28,65.98,33.475
266.27,104.11,64.895,32.925
263.77,103.95,64.008,32.475
261.36,102.09,63.56,32.247
257.05,103.93,63.097,32.012
253.57,103.06,62.386,31.652
252.86,103.72,61.65,31.278
252.15,102.23,60.822,30.858
252.25,102.72,60.067,30.475
251.75,101.92,59.603,30.24
253.09,102.68,59.559,30.218
253.92,102.4,60.259,30.573
255.18,103.54,60.909,30.902
260.42,122.24,60.567,30.729
260.71,126.12,60.127,30.506
262.65,130.7,59.488,30.182
261.8,129.49,58.927,29.897
261.2,129.23,58.252,29.554
253.47,102.34,57.543,29.195
249.67,101.07,56.488,28.659
248.26,99.148,56.524,28.677
247.78,92.667,56.688,28.761
247.89,88.367,56.542,28.687
249.05,87.739,56.603,28.718
250.81,87.951,56.904,28.87
254.3,88.738,57.084,28.962
258.1,89.729,56.64,28.736
260.24,89.088,56.166,28.496
262.61,88.469,55.773,28.297
264.86,88.826,55.925,28.374
266.74,88.769,56.668,28.75
267.5,88.184,57.4,29.122
267.83,87.613,58.203,29.529
267.99,87.276,59.231,30.051
268.07,87.032,60.05,30.466
267.98,86.993,60.737,30.815
267.85,87.47,61.207,31.053
267.12,88.294,61.667,31.287
266.34,89.5,62.367,31.642
265.76,91.242,62.026,31.469
264.96,97.163,61.984,31.448
263.83,102.39,61.956,31.434
260.4,104.87,61.948,31.43
256.01,103.55,62.06,31.487
253.07,104.27,61.393,31.148
277.18,92.858,60.909,30.902
276.1,91.212,60.999,30.948
275.65,89.506,60.643,30.767
274.38,87.688,60.854,30.875
274.46,88.367,60.758,30.826
273.27,90.523,60.758,30.826
275.37,87.442,60.697,30.795
276.94,88.393,60.909,30.903
279.09,91.91,60.859,30.877
280.34,93.575,60.943,30.919
282.02,96.904,61.016,30.956
282.56,97.043,61.136,31.018
282.93,97.734,60.931,30.914
284.01,99.051,60.965,30.931
284.61,99.172,60.829,30.862
284.82,99.159,60.775,30.834
284.92,98.31,60.542,30.716
284.32,97.011,59.912,30.397
284.29,96.408,59.586,30.231
284.96,96.945,59.386,30.13
284.79,96.274,58.716,29.789
285.05,96.212,58.233,29.545
285.41,97.001,58.138,29.497
285.06,96.303,58.08,29.467
285.04,95.796,58.102,29.478
284.77,95.164,57.289,29.066
284.55,94.773,57.318,29.08
284.14,93.966,57.493,29.169
283.8,93.814,57.706,29.277
283.61,93.968,58.167,29.511
283.14,93.186,58.018,29.435
283.08,93.157,57.976,29.414
282.79,93.022,58.309,29.583
283.13,93.261,58.329,29.593
282.84,92.91,58.569,29.715
282.19,92.304,59.063,29.966
282.7,92.37,59.075,29.972
283.01,92.256,59.449,30.162
283.04,91.4,59.292,30.082
283.69,91.654,59.07,29.969
284.92,91.906,59.258,30.065
284.89,91.746,59.241,30.056
285.53,91.681,58.708,29.786
285.14,91.395,58.36,29.609
285.35,91.744,58.479,29.669
285.19,91.647,58.825,29.845
284.67,91.14,58.729,29.796
284.8,91.049,58.693,29.778
284.71,91.099,58.852,29.859
284.51,91.247,59.366,30.119
284.32,90.779,59.745,30.312
284.3,91.197,59.852,30.366
283.51,90.401,60.168,30.526
283.77,90.895,60.405,30.647
283.63,90.754,60.774,30.834
283.35,90.254,60.937,30.917
283.29,90.827,61.288,31.095
282.85,90.248,61.24,31.07
282.88,90.078,61.241,31.071
282.78,89.876,61.603,31.254
283.19,90.649,61.596,31.251
283.14,90.687,61.765,31.337
283.03,90.444,61.753,31.331
283.03,90.432,61.806,31.357
282.7,90.2,61.796,31.352
282.77,89.994,61.849,31.379
282.95,90.139,61.828,31.369
283.04,90.076,61.898,31.404
283.14,90.102,61.973,31.442
283.22,89.974,62.099,31.506
283.56,90.173,62.185,31.55
284.13,90.469,61.999,31.456
284.1,90.06,61.985,31.448
284.23,90.061,61.99,31.451
284.33,89.971,62.036,31.474
284.45,89.963,62.081,31.497
284.44,89.949,62.464,31.691
284.21,89.472,62.964,31.945
284.58,89.875,63.09,32.009
284.35,89.294,63.417,32.175
284.86,89.805,63.692,32.314
285.07,89.651,63.396,32.164
285.38,90.003,63.371,32.151
285.28,89.473,63.406,32.169
285.67,89.678,63.352,32.142
285.33,89.282,63.634,32.285
285.61,89.533,63.536,32.235
285.87,89.791,63.586,32.26
285.74,89.504,63.561,32.248
285.85,89.627,63.614,32.275
285.93,89.876,63.511,32.222
286.29,90.337,63.485,32.209
286.72,90.659,63.04,31.984
287.03,91.116,62.484,31.701
287.68,91.195,61.95,31.431
288.51,91.63,61.273,31.087
289.35,92.573,60.697,30.795
290.32,92.674,59.824,30.352
291.36,93.64,58.979,29.923
292.54,94.793,58.24,29.548
293.29,95.526,57.344,29.094
293.79,95.447,56.644,28.739
294.39,96.215,56.044,28.434
295.75,97.216,56.104,28.464
307.56,115.05,54.955,27.882
308.1,113.89,54.722,27.763
295.22,102.92,55.032,27.92
301.82,131.41,54.791,27.798
276.55,128.13,54.898,27.853
259.67,118.26,55.341,28.077
255.84,107.5,55.615,28.216
255.2,106.75,55.954,28.388
255.25,106.44,55.92,28.371
255.11,106.98,55.922,28.372
255.33,107.35,55.942,28.382
255.48,106.91,55.852,28.337
255.42,106.55,56.371,28.6
255.35,105.98,56.65,28.742
254.72,105.12,56.295,28.561
255.18,105.09,56.106,28.465
255.2,104.81,56.274,28.551
255.81,104.74,56.478,28.654
256.88,105,56.969,28.904
256.99,104.67,57.651,29.249
257.29,104.14,58.165,29.51
256.69,103.48,58.734,29.799
256.44,103.58,58.952,29.909
256.68,103.77,59.388,30.131
256.34,103.38,59.67,30.274
256.57,103.68,60.125,30.505
256.28,104.01,60.158,30.521
256.93,106.51,61.17,31.035
257.06,110.01,61.783,31.346
257.2,113.32,62.918,31.921
257.88,116.26,63.073,32
257.47,118.13,63.172,32.05
256.86,119.3,63.029,31.978
254.54,104.77,62.073,31.493
254.9,104.47,61.567,31.236
254.91,104.76,61.255,31.078
254.78,104.42,60.263,30.575
254.89,104.08,59.89,30.386
254.84,103.45,59.164,30.017
255.51,103.79,59,29.934
255.4,103.73,58.943,29.905
255.05,103.4,59,29.934
254.99,103.11,58.292,29.575
254.76,102.2,57.372,29.108
254.33,101.42,57.125,28.983
254.76,101.72,56.894,28.865
254.42,101.4,56.81,28.823
254.48,101.49,56.588,28.71
254.99,101.99,56.379,28.604
255.21,102.36,55.908,28.365
254.99,101.94,56.017,28.42
254.59,101.59,56.119,28.472
254.88,101.79,56.112,28.468
255.43,102.67,56.008,28.416
255.26,102.84,56.669,28.751
255.18,103.06,57.135,28.987
255.67,103.6,57.927,29.389
256.09,103.76,59.062,29.965
259.52,93.523,58.902,29.884
259.63,92.235,58.993,29.93
259.77,91.88,59.021,29.944
259.84,92.006,58.867,29.866
260.2,91.404,58.483,29.671
260.11,91.475,58.483,29.671
259.72,91.882,58.549,29.705
259.51,92.19,57.907,29.379
258.65,91.612,57.104,28.972
257.95,91.297,55.963,28.393
257.1,91.094,54.786,27.796
290.88,96.741,55.145,27.978
289.39,94.442,55.816,28.318
288.32,90.178,55.568,28.192
286.29,68.11,55.368,28.091
285.28,66.57,54.785,27.795
283.89,66.502,54.504,27.653
283.07,67.3,54.041,27.418
281.57,66.82,53.749,27.27
280.21,67.089,53.483,27.135
279.51,67.256,53.443,27.114
279.43,67.282,53.392,27.089
279.52,67.902,53.442,27.114
279.94,68.435,53.463,27.124
280.5,68.914,53.184,26.983
280.88,69.857,52.929,26.854
280.87,69.712,52.958,26.868
280.88,70.006,52.858,26.818
280.97,70.576,52.882,26.83
280.63,71.043,52.913,26.846
280.11,71.449,52.97,26.874
279.55,71.317,53.055,26.918
279.21,71.546,52.897,26.837
278.69,71.659,53.022,26.901
277.93,71.501,52.672,26.723
277.48,71.738,52.437,26.604
276.86,71.264,52.288,26.529
275.93,71.211,52.162,26.464
274.84,71.142,52.735,26.755
276.91,71.301,53.013,26.896
273.25,72.742,53.256,27.02
274.59,73.76,53.406,27.096
277.15,72.006,53.316,27.05
278.92,72.083,53.192,26.987
280.48,71.586,52.627,26.701
282.3,71.636,52.137,26.452
283.09,71.172,51.512,26.135
283.71,70.595,51.147,25.95
284.42,70.192,50.857,25.802
285.07,69.672,50.348,25.544
285.6,69.537,49.719,25.225
286.24,70.002,48.925,24.822
286.61,70.619,48.524,24.619
287.11,71.155,48.037,24.372
287.54,72.127,47.58,24.14
287.9,72.93,47.425,24.061
288.04,74.26,47.225,23.96
289.28,72.564,46.719,23.703
289.56,73.442,46.2,23.44
290.48,74.297,46.017,23.347
290.88,74.572,45.739,23.206
290.88,73.479,45.262,22.964
293.25,74.559,44.772,22.715
294.09,74.903,44.568,22.612
253.98,98.073,45.151,22.908
253.73,99.093,45.364,23.016
253.73,100,45.893,23.284
253.32,100.25,45.675,23.173
252.99,100.51,45.564,23.117
252.95,99.94,44.91,22.785
252.84,100.27,44.455,22.555
252.43,99.913,44.272,22.461
252.85,100.39,44.051,22.35
253.2,100.45,43.901,22.273
253.04,100.38,43.943,22.294
253.31,100.72,43.827,22.236
291.16,80.418,43.686,22.164
292.41,79.394,43.679,22.161
292.22,79.428,44.154,22.402
291.94,79.741,44.635,22.646
292.06,78.14,44.516,22.585
291.97,77.139,44.808,22.733
292.27,75.497,44.651,22.654
291.81,73.227,44.33,22.491
291.92,72.499,44.227,22.439
292.18,71.546,44.031,22.339
292.11,71.157,44.018,22.333
291.91,71.15,44.271,22.461
291.83,71.254,44.431,22.542
291.48,70.946,44.584,22.62
292.08,71.853,44.706,22.682
293.46,75.555,44.878,22.769
292.77,86.706,44.961,22.811
294.16,88.879,45.066,22.865
294.93,89.662,45.035,22.849
295.32,90.521,45.034,22.848
295.52,90.295,45.177,22.921
295.72,90.471,45.189,22.927
295.74,90.56,45.157,22.911
295.83,90.89,45.351,23.009
296.28,92.05,45.491,23.08
296.5,91.791,45.468,23.068
296.65,92.026,45.482,23.076
296.77,91.771,45.435,23.052
296.86,91.382,45.29,22.978
296.9,90.825,45.154,22.909
296.95,90.434,45.087,22.875
296.74,89.921,45.104,22.883
296.64,89.457,45.119,22.891
296.45,89.232,45.066,22.864
296.11,89.606,45.09,22.877
295.89,89.446,45.004,22.833
295.7,89.559,45.047,22.855
295.74,89.678,45.155,22.91
295.65,90.229,45.27,22.968
295.49,90.934,45.386,23.027
295.56,92.128,45.693,23.183
294.85,92.12,46.178,23.429
294.87,92.969,46.553,23.619
294.45,92.731,47.019,23.855
294.17,92.899,47.323,24.009
293.96,93.807,47.732,24.217
293.87,93.497,47.751,24.227
293.26,93.375,48.066,24.386
293.18,92.653,47.97,24.338
292.51,92.422,48.214,24.462
292.17,91.874,48.577,24.646
291.86,91.941,48.927,24.823
291.41,92.205,49.034,24.878
291.09,92.078,49.143,24.933
290.34,91.595,49.198,24.961
290.13,91.311,49.221,24.972
290.09,91.334,49.226,24.975
290.18,91.47,48.999,24.86
290.27,91.279,48.786,24.752
290.31,91.41,48.65,24.683
290.48,91.264,48.591,24.653
290.41,91.096,48.64,24.678
290.71,91.442,48.407,24.56
290.86,91.381,48.423,24.568
290.92,91.05,48.637,24.676
291.08,90.957,48.821,24.77
291.22,90.889,49.199,24.961
291.26,91.076,49.296,25.011
291.1,91.376,49.486,25.107
291.22,91.716,49.812,25.272
291,91.961,49.812,25.272
290.99,92.254,49.916,25.325
291.18,92.496,49.905,25.319
290.99,92.612,49.964,25.349
290.89,92.515,50.036,25.386
290.78,92.46,50.009,25.372
290.82,92.365,49.858,25.295
290.61,92.403,49.826,25.279
290.27,92.064,49.522,25.125
290.58,91.921,49.228,24.976
290.85,91.856,48.702,24.709
290.98,91.569,48.247,24.478
291.04,91.146,47.76,24.231
290.86,90.778,47.593,24.147
290.7,90.293,47.157,23.925
290.81,90.513,47.041,23.867
290.81,90.482,46.964,23.827
290.55,90.212,46.94,23.815
290.56,90.284,46.957,23.824
290.43,90.276,47.04,23.866
290.42,90.625,47.117,23.905
290.38,90.734,47.087,23.89
290.48,90.875,46.969,23.83
290.47,91.063,46.784,23.736
290.99,91.738,46.507,23.595
291.29,92.004,46.105,23.391
291.51,92.673,46.201,23.44
291.91,92.838,45.955,23.315
292.03,93.033,46.104,23.391
292.73,93.036,46.275,23.478
292.95,92.803,46.834,23.761
293.41,92.749,46.996,23.844
293.57,92.438,47.221,23.958
293.69,92.282,47.49,24.094
294.33,91.751,47.588,24.144
294.48,90.949,47.935,24.32
295.28,90.936,47.867,24.285
295.07,91.245,47.996,24.351
295.42,91.419,47.976,24.341
296.08,91.143,47.757,24.23
296.42,90.847,47.503,24.101
297.05,90.316,47.41,24.054
297.4,90.018,47.251,23.973
297.8,89.292,47.282,23.988
298.26,89.023,47.354,24.025
298.04,88.826,47.292,23.994
298.2,89.735,47.146,23.92
298.1,89.739,46.912,23.801
298.24,90.839,46.45,23.567
298.28,91.355,46.23,23.455
298.42,91.853,46.073,23.375
298.31,92.044,46.125,23.401
298.3,92.328,46.061,23.369
298.19,92.265,46.17,23.424
297.84,92.438,46.062,23.37
297.46,92.221,46.139,23.409
297.24,91.9,46.435,23.559
297.16,91.512,46.734,23.711
297.27,91.197,46.94,23.815
296.96,90.591,47.138,23.916
297.06,90.835,47.3,23.998
297.44,90.891,47.524,24.111
297.24,90.549,47.571,24.135
297.21,90.609,47.605,24.153
297.02,90.509,47.733,24.217
297.4,91.205,47.515,24.107
297.52,91.31,47.245,23.97
297.32,91.173,46.935,23.812
297.06,91.345,46.583,23.634
296.88,91.463,46.194,23.437
296.63,91.725,46.031,23.354
296.44,92.239,45.591,23.131
295.61,92.155,45.284,22.975
295.31,92.257,44.972,22.817
294.99,92.77,44.863,22.761
294.72,93.478,44.49,22.572
294.41,93.702,43.979,22.313
294.35,94.345,44.006,22.326
294.11,94.858,43.988,22.318
293.45,94.928,44.207,22.429
292.89,94.964,44.515,22.585
292.05,94.974,44.879,22.77
291.5,94.789,45.158,22.911
290.9,94.427,45.416,23.042
290.7,94.273,45.655,23.163
290.05,93.617,45.657,23.164
290.01,93.644,45.689,23.181
290.15,93.818,45.781,23.227
290.57,94.128,45.8,23.237
290.62,94.533,45.832,23.253
290.46,94.415,45.937,23.306
290.18,94.275,46.144,23.411
289.94,94.383,46.038,23.358
289.78,94.366,46.033,23.355
289.41,94.134,46.071,23.374
288.39,93.734,46.247,23.464
287.89,93.498,46.423,23.553
287.37,93.413,46.552,23.618
287.15,93.245,46.659,23.673
287.29,93.624,46.79,23.739
287.14,93.583,46.779,23.733
287.18,93.811,46.696,23.691
287.38,93.996,46.213,23.446
287.48,94.103,46.003,23.34
287.54,94.218,46.22,23.45
287.39,94.163,46.135,23.407
287.21,94.148,46.236,23.458
287.11,94.203,46.341,23.511
286.74,94.092,46.404,23.543
286.87,94.25,46.47,23.577
287.22,95.009,46.33,23.506
287.15,95.234,46.339,23.51
287.39,95.366,46.565,23.625
287.78,96.017,46.717,23.702
287.93,96.471,46.89,23.79
288.27,96.932,46.912,23.801
288.82,97.385,46.556,23.62
289.18,97.58,46.484,23.584
289.6,97.862,46.329,23.505
289.72,98.034,46.192,23.436
290.55,98.662,45.778,23.226
290.99,99.131,45.289,22.978
291.01,99.165,45.461,23.065
291.05,99.282,45.624,23.147
291.07,99.385,45.715,23.193
290.84,99.215,45.621,23.146
291.04,99.465,45.695,23.183
290.59,98.982,45.617,23.144
290.75,99.055,45.7,23.186
290.28,98.716,45.952,23.314
290.52,98.943,45.946,23.311
290.45,99.046,45.94,23.308
290.76,99.156,45.923,23.299
291.19,99.527,45.819,23.246
291.58,99.515,45.861,23.268
291.67,99.729,45.907,23.291
291.54,99.764,46.007,23.342
291.97,100.02,45.938,23.307
291.97,99.81,46.009,23.343
292.57,100.32,45.959,23.317
292.95,100.49,45.769,23.221
293.6,100.54,45.49,23.08
294.25,100.45,45.361,23.014
295.18,100.89,45.091,22.877
295.46,100.54,44.486,22.57
296.51,100.39,44.076,22.362
297.64,101.28,43.725,22.184
297.93,101.31,43.259,21.948
298.7,101.15,42.793,21.711
300.02,101.28,42.165,21.393
299.84,102.17,41.89,21.253
297.78,103.34,41.101,20.853
296.77,103.03,40.142,20.366
299.14,103.01,39.45,20.015
293.68,98.91,39.252,19.915
293.31,98.327,38.924,19.748
293.1,97.375,38.403,19.484
293.27,96.137,38.091,19.326
293.06,95.352,37.458,19.004
292.61,81.508,37.134,18.84
294.48,82.915,36.896,18.719
293.49,94.779,36.469,18.503
294.13,95.138,36.188,18.36
294.12,94.562,35.948,18.238
294.57,94.753,35.817,18.172
294.73,95.079,35.627,18.075
293.7,94.448,35.485,18.003
293.33,94.252,35.323,17.921
291.34,93.449,35.178,17.848
290,104.13,35.226,17.872
267.3,85.873,35.302,17.911
267.63,83.736,35.46,17.991
266.89,79.283,35.531,18.027
266.73,75.184,35.694,18.11
266.47,70.79,35.74,18.133
266.15,67.687,35.684,18.104
264.86,63.765,35.733,18.129
265.48,60.572,35.785,18.156
265.85,57.804,35.648,18.086
275.45,57.417,35.115,17.816
276.86,53.55,35.066,17.791
267.68,51.703,34.777,17.644
266.69,48.676,34.785,17.648
266.47,45.894,34.743,17.627
266.51,44.743,34.746,17.628
274.27,49.066,34.796,17.654
264.15,29.575,34.608,17.559
264.38,29.059,34.39,17.448
265.57,30.616,34.33,17.418
264.41,29.904,34.42,17.463
263.87,29.921,34.593,17.551
259,23.283,34.386,17.446
261.62,23.022,34.106,17.304
262.06,22.856,33.888,17.193
262.61,22.744,33.893,17.196
262.55,22.688,33.748,17.122
262.48,22.347,33.728,17.112
262.19,22.449,33.62,17.057
261.63,22.318,33.406,16.949
261.76,22.514,33.286,16.888
262.12,22.693,33.195,16.842
261.81,22.326,33.248,16.869
261.46,22.597,33.149,16.818
259.77,23.411,33.219,16.854
257.98,27.263,33.339,16.915
259.8,26.054,33.647,17.071
242.98,22.673,33.549,17.021
243.99,23.366,33.505,16.999
260.71,48.566,33.542,17.018
259.92,47.082,33.688,17.092
258.84,43.9,33.841,17.169
259.54,41.99,33.848,17.173
258.29,37.538,34.031,17.266
259.89,23.177,33.927,17.213
259.63,23.157,33.887,17.193
301.03,99.848,34.105,17.303
299.3,97.071,34.434,17.47
298.64,94.956,34.67,17.59
298.18,94.719,34.832,17.672
297.56,93.926,34.985,17.75
297.35,94.183,34.913,17.713
297.15,95.629,34.871,17.692
297.06,95.804,35.049,17.782
297.27,96.134,35.176,17.847
296.96,95.755,35.332,17.926
295.73,93.387,35.506,18.014
294.13,90.783,35.403,17.962
293.21,86.639,35.634,18.079
291.22,78.624,35.278,17.898
290.37,78.363,35.385,17.953
289.13,77.365,35.524,18.023
288.44,76.426,35.692,18.109
288.62,76.416,35.947,18.238
288.91,76.418,36.145,18.338
288.34,75.909,36.406,18.471
288.17,76.787,36.723,18.631
289.24,77.129,36.56,18.549
291.18,78.115,36.442,18.489
292.33,78.203,36.531,18.534
293.99,86.741,36.425,18.48
295.19,92.854,36.463,18.5
296.22,95.649,36.36,18.447
297,96.126,36.325,18.43
297.09,96.136,36.353,18.444
296.41,93.79,36.539,18.538
295.96,91.298,36.733,18.637
294.99,87.495,36.639,18.589
295.4,86.357,36.644,18.591
294.94,87.839,36.839,18.69
294.96,89.293,36.932,18.738
295.45,91.688,36.902,18.723
296.41,93.863,36.729,18.635
297.34,93.635,36.574,18.556
299.24,97.129,36.451,18.493
299.57,99.499,36.352,18.443
299.52,99.3,36.238,18.386
299.4,98.956,36.043,18.286
299.9,99.21,35.897,18.213
291.97,74.946,36.012,18.271
291.9,73.164,36.011,18.27
289.68,71.875,36.272,18.403
286.91,70.722,36.588,18.563
285.72,70.052,36.769,18.655
284.83,69.146,37.004,18.774
286.3,69.373,36.813,18.677
286.88,67.689,36.978,18.761
287.1,66.583,36.956,18.75
286.7,65.488,36.814,18.678
288.53,64.297,36.656,18.598
289.14,64.895,36.44,18.488
268.3,86.143,36.229,18.381
275.41,87.802,36.105,18.318
282.31,88.362,35.93,18.229
289.34,90.751,35.899,18.213
293.65,92.703,35.769,18.147
297.41,100.59,35.572,18.047
286.33,91.033,35.265,17.892
287.5,91.907,35.287,17.903
286.75,92.086,35.194,17.856
285.33,91.709,35.127,17.822
291.71,92.72,35.324,17.922
290.73,93.454,35.363,17.942
290.4,93.591,35.415,17.968
292.39,94.293,35.468,17.995
296.59,95.246,35.411,17.966
295.28,95.552,35.566,18.045
292.85,96.966,35.701,18.113
287.91,98.296,35.692,18.109
283.64,99.605,35.724,18.125
279.46,101.56,35.702,18.113
274.56,102.49,35.807,18.167
259.07,97.699,35.778,18.152
252.92,96.359,35.534,18.028
297.38,91.683,35.496,18.009
294.05,87.622,35.705,18.115
292.46,86.868,35.781,18.154
291.89,87.627,35.947,18.238
291.74,88.861,36.113,18.322
292.05,90.558,36.227,18.38
293.17,92.996,36.141,18.336
294.4,95.567,36.214,18.373
295.66,99.529,36.252,18.393
297.13,102.63,36.215,18.374
298.18,103.02,36.135,18.333
298.7,102.04,36.18,18.356
298.63,97.454,36.062,18.296
298.13,94.072,35.99,18.26
297.65,92.754,35.897,18.212
297.91,92.1,35.738,18.132
297.88,91.31,35.618,18.071
298.04,91.334,35.518,18.02
298.52,91.49,35.629,18.077
298.82,91.576,35.715,18.12
299.41,91.885,35.863,18.195
299.78,91.811,36.058,18.294
299.54,91.486,36.237,18.385
299.45,91.156,36.283,18.408
299.63,91.447,36.242,18.388
299.92,91.905,36.323,18.428
300.35,92.402,36.482,18.509
300.66,93.105,36.554,18.546
300.68,93.556,36.633,18.586
300.34,93.313,36.744,18.642
300.17,93.46,36.831,18.686
300.33,93.837,36.833,18.688
300.68,94.36,36.774,18.657
300.94,94.856,36.72,18.63
300.87,95.45,36.766,18.653
300.9,95.636,36.868,18.705
300.93,95.781,36.923,18.733
301.41,96.525,36.889,18.716
301.69,97.51,36.754,18.647
302.27,98.042,36.775,18.658
302.93,99.832,36.884,18.713
304.11,101.41,36.737,18.639
305.01,103.17,36.835,18.688
305.86,104.21,36.661,18.6
307.01,106.41,36.5,18.519
305.97,106.19,36.394,18.465
304.08,99.252,36.134,18.333
301.12,92.065,36.282,18.408
299.82,85.355,36.04,18.285
297.52,80.524,36.065,18.298
284.89,87.357,36.12,18.326
268.98,106.71,36.562,18.55
269,106.12,36.994,18.769
269.08,107.23,37.14,18.843
260.13,102.02,37.2,18.874
259.1,102.67,37.098,18.822
258.41,102.51,37.195,18.871
256.62,103.84,37.017,18.78
256.26,105.87,36.737,18.639
255.51,107.16,36.658,18.599
266.03,109.87,36.553,18.545
265.65,112.68,36.372,18.453
267.67,123.97,36.63,18.584
266.5,123.59,36.703,18.622
264.83,123.11,36.867,18.704
264.12,122.84,37.014,18.779
264.09,123.16,37.011,18.778
260.48,107.9,36.874,18.708
259.41,107.4,36.762,18.651
262.59,116.47,36.879,18.71
264.05,119.01,37.014,18.779
261.1,121.8,37.332,18.941
259.87,120.43,37.715,19.135
260.19,120.93,37.779,19.167
259.9,120.66,37.945,19.252
259.52,120.09,37.849,19.203
259.6,120.16,37.993,19.276
258.8,119.73,37.767,19.161
258.78,119.87,37.778,19.167
258.46,119.78,37.753,19.154
258.05,119.53,37.792,19.174
257.65,119.41,37.966,19.262
256.71,118.46,38.062,19.311
256.34,118.28,38.06,19.31
256.03,117.99,38.055,19.308
256.14,118.01,38.057,19.308
255.9,117.61,38.049,19.304
256.13,117.5,37.936,19.247
256.59,117.57,37.813,19.185
256.91,117.64,38.042,19.301
256.43,116.9,37.872,19.214
257.22,117.45,38.015,19.287
256.93,116.84,38.065,19.312
256.91,117.01,38.154,19.358
257.17,117.41,38.224,19.393
257.1,117.34,38.325,19.444
256.22,112.49,38.119,19.34
255.81,111.08,38.016,19.287
255.79,110.58,37.922,19.24
256.61,110.38,38.116,19.338
256.63,109.76,38.256,19.409
257.86,110.12,38.466,19.516
257.84,110.01,38.776,19.673
257.39,109.39,39.007,19.79
258.28,109.74,38.997,19.785
258.61,109.52,39.024,19.799
259.17,109.5,38.761,19.666
259.27,109.09,38.592,19.58
259.63,109.56,38.416,19.491
260.3,109.92,38.289,19.426
260.58,110.01,38.211,19.387
260.45,109.31,38.097,19.329
260.61,109.01,38.1,19.33
260.46,108.8,38.212,19.387
260.44,108.67,38.264,19.413
260.61,108.87,38.377,19.471
260.32,108.73,38.479,19.523
260.26,108.78,38.426,19.495
260.14,108.73,38.383,19.474
260.14,108.65,38.437,19.501
260.23,108.73,38.453,19.509
260.63,108.91,38.636,19.602
260.45,108.43,38.823,19.697
260.58,108.47,39.024,19.799
261.29,109.05,39.213,19.895
260.87,108.84,39.048,19.811
261.47,109.11,39.211,19.894
261.16,108.55,39.297,19.938
261.32,108.68,39.246,19.912
261.23,108.64,39.343,19.961
261.15,108.43,39.459,20.019
260.85,108.36,39.479,20.03
260.85,108.13,39.214,19.895
260.83,108.1,39.089,19.832
261.16,108.48,39.368,19.973
260.67,108.03,39.245,19.911
260.72,107.88,39.112,19.844
261.11,108.29,39.43,20.005
260.75,107.89,39.699,20.142
261.37,108.13,39.787,20.186
261.43,107.89,40.344,20.469
261.66,107.84,40.764,20.682
261.78,107.59,40.957,20.78
261.96,107.76,41.343,20.976
261.88,107.34,41.133,20.869
261.84,107.21,41.327,20.968
262.11,107.22,41.491,21.05
262.78,107.57,41.852,21.234
262.4,107.01,41.948,21.282
262.42,106.94,42.145,21.382
262.82,107.35,42.572,21.599
262.27,106.84,42.795,21.712
262.69,107.24,42.855,21.743
262.54,107.13,43.045,21.839
262.25,106.89,43.168,21.901
262.11,106.61,43.196,21.916
262.39,106.64,43.159,21.897
262.51,106.63,43.17,21.902
262.58,106.6,43.209,21.922
262.63,106.81,43.149,21.892
262.73,106.86,43.023,21.828
263.19,107.24,43.082,21.858
263.28,107.27,43.083,21.858
263.48,107.48,43.546,22.093
262.62,108.02,43.857,22.251
297.46,105.07,43.07,21.852
295.2,102.29,42.789,21.709
293.86,99.558,42.173,21.397
292.02,97.594,41.819,21.217
289.84,94.561,41.959,21.288
288.76,92.683,42.094,21.356
288.25,90.194,42.138,21.379
287.69,86.658,42.23,21.426
286.98,83.924,42.135,21.377
287.03,83.398,41.958,21.287
286.65,82.66,42.113,21.366
287.38,82.946,42.172,21.396
287.16,81.701,42.245,21.433
286.9,80.53,42.254,21.438
286.71,78.303,42.125,21.372
286.48,76.509,41.957,21.287
285.77,75.407,41.835,21.225
285.84,74.432,41.878,21.247
285.97,73.442,41.644,21.128
286.8,73.739,41.537,21.074
287.01,73.366,41.584,21.098
287.14,73.343,41.757,21.186
286.99,73.516,41.906,21.261
287.07,73.422,41.923,21.27
287.76,73.481,42.077,21.348
289.27,74.109,42.389,21.506
290.59,74.284,42.727,21.677
292.05,74.65,42.999,21.816
293.24,80.379,43.383,22.011
294.22,86.698,43.201,21.918
295.08,89.36,42.956,21.794
296.5,91.806,43.096,21.865
299.12,97.63,42.785,21.707
301.94,103.43,42.829,21.729
295.44,122.28,43.036,21.834
287.95,137.14,42.801,21.715
285.11,146.86,42.543,21.584
293.37,152.69,41.971,21.294
293.5,152.74,41.629,21.12
281.55,158.98,41.91,21.263
276.15,162.8,41.526,21.068
275.96,165.14,41.419,21.014
277.03,163.8,41.282,20.945
281.69,156.98,41.277,20.942
284.86,148.48,41.078,20.841
286.06,143.98,40.856,20.729
284.79,142.39,40.806,20.703
282.07,139.56,40.706,20.652
301.48,94.729,40.489,20.542
299.84,92.937,40.703,20.651
298.9,90.923,40.866,20.734
297.97,87.306,41.159,20.882
296.38,77.676,40.954,20.778
295.31,74.327,40.756,20.678
293.57,73.678,40.746,20.672
292.76,72.641,41.046,20.825
292.92,73.153,41.18,20.893
293.05,72.737,41.179,20.892
294.37,73.374,41.285,20.946
295.66,83.088,41.432,21.02
296.65,89.325,41.75,21.182
297.93,92.274,42.249,21.435
299.01,94.363,42.447,21.536
298.27,93.709,42.573,21.6
298.85,94.575,42.628,21.627
299.56,95.941,42.341,21.482
299.82,96.813,41.945,21.281
299.81,99.307,41.773,21.193
300.45,100.94,41.71,21.162
301.11,102.29,41.515,21.063
301.61,103.54,41.366,20.987
301.47,103.81,40.957,20.78
302.02,104.44,40.763,20.681
301.57,104.12,40.348,20.471
301.41,104.06,39.986,20.287
300.52,103.39,39.727,20.156
300.64,103.83,39.71,20.147
300.28,103.5,39.677,20.13
300.06,103.49,39.748,20.166
299.81,103.61,39.532,20.057
299.69,103.68,39.426,20.003
299.06,102.61,39.422,20.001
299.05,102.05,39.297,19.937
299.11,101.58,39.226,19.902
299.28,100.5,39.075,19.825
300.17,100.21,38.883,19.727
300.52,99.603,38.585,19.576
300.42,98.643,38.348,19.456
301.21,98.32,38.305,19.434
301.31,98.123,38.398,19.482
301.39,98.051,38.424,19.495
301.45,97.869,38.506,19.536
301.6,97.838,38.515,19.541
301.68,97.754,38.503,19.535
301.77,97.829,38.522,19.544
301.7,97.806,38.536,19.551
301.98,97.732,38.386,19.475
301.95,97.746,38.283,19.423
302.14,97.778,38.106,19.333
301.71,97.252,37.978,19.268
301.92,97.194,37.915,19.236
302.38,97.5,37.9,19.229
302.77,97.7,37.906,19.232
302.69,97.65,37.84,19.198
303.13,97.788,37.778,19.167
303.22,97.793,37.59,19.071
303.18,97.515,37.379,18.964
303.04,97.373,37.321,18.935
303.23,97.312,37.343,18.946
303.42,97.257,37.333,18.941
303.47,97.099,37.171,18.859
304.12,97.49,37.186,18.866
304.14,97.589,37.158,18.852
304.24,96.87,37.102,18.824
303.91,96.316,36.953,18.748
303.24,95.405,37.157,18.852
303.19,95.051,37.362,18.956
302.55,94.097,37.501,19.026
302.53,94.029,37.601,19.077
303.14,94.538,37.666,19.11
303.8,95.128,37.884,19.221
304.58,96.711,38.043,19.301
304.59,96.674,38.143,19.352
305.74,98.903,38.36,19.462
307.13,99.818,38.103,19.332
307.01,100.41,37.714,19.134
307.77,100.49,37.548,19.05
307.3,99.586,37.246,18.897
307.95,99.231,37.023,18.784
307.71,98.47,36.757,18.649
307.08,97.634,36.732,18.636
307.02,97.49,36.701,18.62
307.04,97.432,36.588,18.563
307.74,98.173,36.505,18.521
307.85,98.762,36.633,18.586
307.98,98.997,36.591,18.564
308.78,100.67,36.699,18.619
308.9,100.74,36.594,18.566
309,105.05,36.588,18.563
306.25,104.41,36.662,18.601
272.12,101.06,36.711,18.625
272.37,100.91,36.778,18.66
272.72,101.01,36.813,18.677
273.02,101.45,36.738,18.639
273.06,101.18,36.953,18.748
273.46,101.31,37.005,18.775
272.9,102.13,37.085,18.815
272.85,102.47,37.041,18.793
272.82,102.61,36.983,18.764
272.21,102.03,37.101,18.823
271.91,102.34,37.095,18.82
271.52,102.12,37.177,18.862
271.34,101.56,37.211,18.879
271.49,101.02,37.316,18.932
271.32,100.3,37.248,18.898
272.2,100.67,37.254,18.901
271.93,101.19,37.405,18.978
271.42,100.98,37.415,18.983
271.61,101.6,37.251,18.9
272.31,102.09,37.081,18.813
272.37,101.95,37.226,18.887
272,101.96,37.365,18.957
271.28,101.52,37.19,18.868
271.53,102.01,37.161,18.854
271.34,101.98,37.171,18.859
271.02,102.12,37.088,18.817
270.7,102.43,36.672,18.606
270.31,102.5,35.999,18.264
270.27,102.56,35.724,18.125
270.82,102.73,35.827,18.177
271.5,103.07,35.867,18.197
271.54,102.97,36.297,18.415
271.37,102.77,36.288,18.411
271.4,102.93,35.844,18.185
271.65,103.27,36.159,18.346
271.44,102.74,35.773,18.149
271.73,103.24,36.135,18.333
271.46,102.93,35.849,18.188
271.94,103.41,35.923,18.225
271.94,103.39,35.959,18.244
272.08,103.6,36.041,18.286
271.81,103.47,35.923,18.226
272.18,103.68,35.875,18.201
272.15,103.7,35.944,18.236
272.11,103.67,35.974,18.252
271.87,103.59,35.983,18.256
272.05,103.5,35.923,18.226
272.16,103.81,35.934,18.231
272.05,103.9,35.923,18.225
272.01,103.86,35.988,18.258
271.6,103.93,35.999,18.264
271.5,104.05,35.726,18.126
270.87,104.22,35.603,18.064
269.84,104.6,35.13,17.823
269.99,104.82,34.875,17.694
269.16,104.73,34.332,17.418
268.9,104.72,34.186,17.344
269.14,105.1,33.975,17.238
269.16,105.38,33.901,17.2
269.05,105.37,33.899,17.199
268.87,105.76,33.971,17.235
310.02,104.89,33.95,17.225
309.87,102.17,33.894,17.196
309.22,100.2,33.675,17.085
307.84,98.705,33.465,16.979
307.04,97.9,33.302,16.896
306.36,96.447,33.407,16.949
305.27,94.979,33.671,17.083
304.44,93.151,33.965,17.232
304.32,91.748,34.098,17.3
303.79,90.406,34.072,17.287
303.47,89.491,34.084,17.293
303.25,88.232,34.265,17.385
302.72,86.317,34.465,17.486
302.93,83.954,34.375,17.44
302.99,83.068,34.41,17.458
302.82,83.78,34.525,17.516
302.91,84.973,34.652,17.581
302.96,85.606,34.892,17.702
302.42,85.62,34.939,17.727
302.41,85.855,35.091,17.804
302.77,86.734,35.116,17.816
302.91,87.266,35.189,17.853
303.31,88.227,35.645,18.085
302.96,87.915,35.776,18.151
303.6,88.573,35.863,18.195
303.8,88.468,35.892,18.21
304.09,88.412,35.99,18.259
304.06,88.134,36.143,18.337
304.49,88.518,36.248,18.39
305.07,90.122,36.427,18.481
306.12,90.365,36.56,18.549
306.97,88.656,36.669,18.604
307.28,85.446,36.739,18.64
305.93,84.236,36.545,18.541
307.62,82.391,36.699,18.62
307.36,80.274,36.84,18.691
307.58,79.509,36.82,18.681
307.72,79.238,36.838,18.69
307.98,79.177,36.904,18.724
308.35,79.557,36.974,18.759
308.88,80.345,36.926,18.735
308.47,81.148,36.909,18.726
308.41,81.397,36.851,18.696
308.32,81.67,36.79,18.665
308.37,81.715,36.668,18.604
308.55,82.075,36.544,18.541
308.75,82.425,36.631,18.585
308.4,82.175,36.66,18.6
308.4,82.134,36.653,18.596
308.35,82.097,36.706,18.623
308.16,82.039,36.683,18.611
308.13,82.498,36.657,18.598
308.06,82.701,36.539,18.538
308.35,83.247,36.597,18.568
308.25,83.497,36.745,18.643
307.68,83.19,36.721,18.631
307.82,83.305,36.565,18.552
308.26,83.933,36.652,18.596
307.86,83.861,36.537,18.537
308.16,84.094,36.547,18.542
308.22,84.086,36.576,18.557
308.32,84.337,36.708,18.624
307.88,84.695,36.724,18.632
307.98,84.985,36.671,18.605
307.97,84.645,36.658,18.599
307.93,84.037,36.643,18.591
307.87,83.836,36.625,18.582
308.2,84.162,36.549,18.543
308.81,84.971,36.538,18.538
309.3,85.453,36.487,18.512
309.52,85.56,36.507,18.522
309.75,85.797,36.425,18.48
309.94,86.169,36.337,18.436
310.07,85.831,36.024,18.277
310.13,86.094,35.802,18.164
310.58,86.372,35.677,18.101
310.66,86.374,35.529,18.026
310.63,87.124,35.449,17.985
310.48,89.659,35.479,18
310.48,89.889,35.543,18.033
310.26,86.984,35.428,17.975
310.09,86.932,35.411,17.966
309.96,86.454,35.369,17.945
309.8,86.208,35.152,17.834
309.9,86.319,35.387,17.954
309.56,86.24,35.274,17.896
309.81,86.589,35.352,17.936
309.52,87.026,35.381,17.95
309.59,87.307,35.41,17.965
309.73,87.412,35.409,17.965
309.76,87.439,35.356,17.938
309.75,87.393,35.333,17.926
309.72,87.382,35.415,17.968
309.68,87.16,35.358,17.939
309.71,87.058,35.338,17.929
309.73,87.102,35.242,17.88
310.06,87.11,35.282,17.9
310.11,87.065,35.428,17.974
309.82,86.794,35.217,17.868
310.23,86.975,35.284,17.901
310.16,87.339,35.306,17.913
310.27,87.456,35.254,17.886
310.21,87.674,35.288,17.903
310.18,87.922,35.376,17.948
309.89,87.521,35.434,17.978
309.78,87.491,35.386,17.953
309.83,85.765,35.338,17.929
310,85.454,35.243,17.88
310.22,85.661,35.246,17.882
310.14,85.679,35.317,17.918
309.87,85.611,35.466,17.994
309.11,84.965,35.444,17.982
308.78,84.478,35.385,17.953
308.72,84.356,35.507,18.014
308.4,83.588,35.545,18.034
308.29,83.146,35.617,18.07
308.27,82.947,35.738,18.132
308.6,83.041,35.789,18.158
308.76,83.148,35.996,18.263
308.33,82.427,36.189,18.361
308.13,81.991,36.115,18.323
308.03,81.847,36.085,18.308
308.07,81.58,36.102,18.316
308.14,81.349,36.255,18.394
308.45,81.403,36.172,18.352
308.71,81.647,36.14,18.336
308.83,81.791,36.106,18.318
308.99,81.801,36.18,18.356
309.11,81.77,36.223,18.378
309.17,81.825,36.211,18.372
309.19,81.844,36.233,18.383
309.4,81.787,36.187,18.36
309.48,81.792,36.301,18.417
309.74,81.973,36.344,18.439
309.75,81.936,36.452,18.494
309.98,82.375,36.512,18.524
310.08,82.359,36.5,18.519
310.19,82.634,36.513,18.525
310.14,82.799,36.612,18.575
309.97,83.13,36.607,18.573
309.63,82.863,36.583,18.56
308.99,82.182,36.538,18.538
308.14,82.023,36.573,18.555
307.33,81.321,36.72,18.63
306.21,80.342,36.987,18.765
306.05,80.293,37.053,18.799
306.03,80.608,37.042,18.794
306.01,80.704,37.039,18.792
306.08,80.919,37.055,18.8
306.14,81.069,37.277,18.912
305.91,81.054,37.448,18.999
305.62,80.84,37.687,19.121
306.05,81.608,37.765,19.16
306.04,81.86,37.627,19.09
305.81,81.821,37.349,18.949
305.5,81.537,37.239,18.893
305.93,82.232,37.171,18.859
305.93,82.415,36.951,18.747
305.76,82.42,36.704,18.622
305.38,82.241,36.56,18.549
305.81,82.789,36.511,18.524
305.67,82.891,36.433,18.485
305.47,82.831,36.435,18.486
305.36,82.903,36.319,18.427
305.03,82.526,36.168,18.35
304.76,82.32,35.915,18.222
305.2,82.857,35.908,18.218
305.15,82.682,36.009,18.269
304.8,82.419,36.079,18.305
304.68,82.008,36.144,18.338
304.86,82.052,36.127,18.329
305.05,81.983,36.126,18.329
305.12,82.011,36.128,18.33
305.31,81.947,36.102,18.317
305.46,81.933,36.028,18.279
305.77,82.198,35.932,18.23
306.18,82.131,35.839,18.183
306.29,81.946,35.71,18.117
306.16,81.554,35.657,18.091
306.1,81.471,35.559,18.041
305.45,81.122,35.625,18.074
305.15,80.986,35.668,18.096
305.28,80.916,35.701,18.113
305.49,80.877,35.705,18.115
305.48,80.723,35.923,18.226
305.63,80.82,36.14,18.336
304.75,79.759,36.28,18.407
304.51,78.761,36.375,18.455
304.62,78.37,36.465,18.501
304.52,78.292,36.447,18.491
304.27,78.223,36.581,18.559
304.15,78.183,36.535,18.536
304.27,78.768,36.641,18.59
303.27,82.324,36.996,18.77
303.43,83.125,37.008,18.776
303.67,83.627,37.031,18.788
303.54,83.681,37.072,18.808
303.48,83.392,37.112,18.829
303.49,83.338,37.163,18.855
303.65,83.309,37.059,18.802
303.77,83.318,36.978,18.761
303.61,83.104,36.991,18.768
303.54,83.281,36.992,18.768
303.46,83.404,36.942,18.742
303.19,83.935,36.909,18.726
302.61,73.317,36.604,18.571
302.5,73.715,36.457,18.496
302.2,73.696,36.393,18.464
301.87,73.707,36.382,18.459
301.15,73.748,36.415,18.475
300.19,73.684,36.503,18.52
299.44,73.532,36.664,18.601
298.66,73.225,36.698,18.619
298.32,72.808,36.595,18.566
299.3,73.406,36.669,18.604
300.57,84.041,37.002,18.773
301.81,84.903,36.922,18.733
301.9,84.274,37.024,18.784
303.3,84.307,36.958,18.751
303.57,83.765,37.074,18.81
304.38,83.843,37.085,18.815
304.79,83.605,37.077,18.811
304.99,83.772,37.102,18.824
305.05,84.124,37.141,18.843
305.17,84.337,37.11,18.828
305.38,84.384,37.038,18.791
305.49,84.335,36.952,18.748
305.46,84.132,36.857,18.699
305.19,83.869,36.841,18.692
305.33,83.952,36.723,18.631
305.27,84.103,36.727,18.633
305.16,84.226,36.645,18.592
305.31,84.517,36.617,18.578
305.38,84.505,36.639,18.589
305.49,84.719,36.614,18.576
306.21,84.914,36.567,18.553
306.49,84.826,36.719,18.629
306.35,84.453,36.653,18.596
306.69,84.721,36.737,18.639
306.64,84.467,36.666,18.603
306.96,84.724,36.586,18.562
307.42,84.882,36.456,18.496
307.48,84.914,36.412,18.474
307.6,84.745,36.34,18.437
307.65,84.446,36.161,18.346
307.31,83.893,36.098,18.314
307.27,83.943,36.144,18.338
307.2,83.724,36.147,18.339
307.03,84.22,36.118,18.325
307,84.587,36.082,18.306
307.14,85.138,36.057,18.294
307.16,86.418,36.312,18.423
307.48,86.884,36.418,18.477
307.76,87.469,36.475,18.506
307.88,87.812,36.476,18.506
307.99,88,36.388,18.461
307.88,88.302,36.451,18.494
307.95,88.336,36.551,18.544
307.85,88.27,36.647,18.593
307.3,87.825,36.784,18.662
307.04,87.156,36.876,18.709
307.12,87.558,36.823,18.682
307.29,88.572,36.836,18.689
307.33,89.117,36.923,18.733
307.47,89.487,36.89,18.716
307.45,89.329,36.866,18.704
307.13,88.97,36.886,18.714
306.83,87.868,36.807,18.674
306.1,87.498,36.838,18.69
305.52,86.518,36.782,18.662
304.99,85.392,36.694,18.617
305.06,72.004,36.509,18.523
305.69,72.526,36.406,18.471
305.94,72.8,36.007,18.268
306.03,73.103,35.721,18.123
306.75,73.435,35.737,18.131
305.35,88.468,36,18.265
305.35,88.452,36.004,18.267
306.33,73.995,35.482,18.002
305.89,73.468,35.168,17.843
306.07,73.883,35.294,17.907
305.94,73.928,35.252,17.885
305.8,73.936,35.144,17.831
305.83,73.52,34.977,17.745
305.63,72.497,34.928,17.721
306.13,73.369,35.169,17.843
306.08,84.941,35.589,18.056
306.13,86.344,35.795,18.161
306.66,87.52,35.813,18.17
306.41,87.242,35.741,18.133
305.9,85.362,35.706,18.116
305.79,83.503,35.744,18.135
305.58,81.6,35.811,18.169
305.75,80.041,35.755,18.14
305.49,78.397,35.768,18.147
305.51,77.138,35.786,18.156
305.88,75.23,35.919,18.224
305.87,72.19,36.004,18.267
304.83,69.356,36.095,18.313
303.37,65.67,36.311,18.422
301.98,61.179,36.176,18.354
301.16,59.682,36.057,18.293
301.47,61.771,36.139,18.335
301.47,63.494,36.252,18.392
301.57,63.458,36.301,18.418
301.91,64.184,36.373,18.454
301.93,64.228,36.351,18.443
301.81,64.242,36.499,18.518
301.77,64.712,36.667,18.603
301.25,64.732,36.824,18.683
301.36,64.838,36.911,18.727
301.61,65.327,36.956,18.75
302.02,66.134,37.069,18.807
302.19,66.614,37.061,18.803
302.33,66.814,37.009,18.777
302.46,67.223,37.082,18.814
302.63,67.766,37.054,18.799
302.81,68.564,36.851,18.697
302.41,68.524,36.865,18.704
302.29,68.615,36.771,18.656
302.28,69.077,36.63,18.584
302.49,69.975,36.586,18.562
303.34,72.207,36.712,18.626
303.5,77.78,36.689,18.614
304.17,86.776,36.905,18.724
304.05,91.609,37.019,18.782
304.77,94.26,37.294,18.921
304.22,95.449,37.227,18.887
304.3,95.445,37.315,18.932
303.42,95.053,37.255,18.902
303.48,95.193,37.044,18.795
303.15,94.53,36.98,18.762
302.29,94.15,36.916,18.73
301.49,93.103,36.906,18.724
301.42,92.058,36.867,18.705
301.43,90.42,36.957,18.75
302.1,87.583,36.813,18.677
301.31,82.041,36.734,18.637
300.63,78.654,36.67,18.604
300.09,76.568,36.654,18.596
299.75,73.708,36.741,18.641
298.71,69.253,36.842,18.692
298.15,66.55,36.862,18.702
297.85,64.984,37.067,18.806
294.5,65.029,37.335,18.942
285.96,63.694,37.782,19.169
292.34,65.066,37.6,19.076
291.17,64.736,37.587,19.07
291.28,65.412,37.517,19.034
291.37,65.369,37.625,19.089
294.21,65.695,37.705,19.13
298.31,65.893,37.689,19.122
301.29,65.394,37.557,19.055
302.16,65.455,37.438,18.994
302.75,66.134,37.487,19.019
302.94,66.745,37.49,19.021
302.47,67.173,37.503,19.027
301.99,67.409,37.55,19.051
301.81,67.98,37.467,19.009
301.47,68.464,37.405,18.977
301,69.85,37.346,18.948
301.73,71.503,37.476,19.013
302.39,72.311,37.531,19.041
302.94,74.379,37.532,19.042
303.9,75.388,37.527,19.039
304.44,80.057,37.525,19.039
305.61,81.96,37.4,18.975
306.59,82.979,37.294,18.921
307.46,84.512,37.177,18.862
308.13,85.569,37.148,18.847
308.46,85.775,37.04,18.792
308.57,85.625,36.858,18.7
308.16,83.892,36.795,18.668
308.12,82.716,36.456,18.496
308.32,82.331,36.306,18.42
308.11,81.594,36.248,18.39
307.73,81.169,36.285,18.409
307.68,81.134,36.319,18.427
307.92,81.371,36.4,18.468
307.92,81.281,36.496,18.517
307.23,80.853,36.55,18.544
306.74,79.095,36.616,18.577
305.96,77.625,36.7,18.62
305.28,76.424,37.022,18.783
305.55,76.225,37.138,18.842
305.29,75.866,37.423,18.987
304.63,75.207,37.536,19.044
304.31,73.799,37.248,18.898
304.4,73.14,37.24,18.894
304.32,72.972,37.256,18.902
304.46,74.585,37.2,18.874
304.77,76.426,37.347,18.948
304.82,78.042,37.582,19.067
305.28,80.728,37.71,19.132
306.13,84.659,37.822,19.189
306.65,88.872,37.869,19.213
307.18,92.6,37.822,19.189
307.53,97.123,37.958,19.258
307.31,100.07,38.013,19.286
307.94,102.36,37.919,19.238
309.28,104.37,37.701,19.128
309.6,105.65,37.519,19.035
291.46,139.2,37.4,18.975
287.65,146.05,37.408,18.979
287.69,146.32,37.387,18.969
287.14,146.69,37.501,19.026
286.72,145.3,37.649,19.101
287.81,142.82,37.511,19.031
285.47,140.33,37.578,19.065
283.47,138.32,37.473,19.012
271.46,143.52,37.504,19.028
269.75,143.62,37.309,18.929
267.07,135.15,37.113,18.829
268.34,145.13,37.19,18.868
302.01,74.149,37.083,18.814
300.57,70.392,37.179,18.863
300.43,69.8,37.344,18.947
299.07,69.109,37.341,18.945
298.13,69.588,37.509,19.03
296.91,69.573,37.795,19.175
297.25,70.197,38.311,19.437
296.94,70.246,38.583,19.575
296.84,69.858,38.678,19.623
298.38,72.345,38.469,19.517
299.32,77.788,38.771,19.671
300.74,81.561,38.653,19.611
303.23,90.784,38.589,19.578
306.13,96.27,37.904,19.231
273.28,105.19,38.146,19.354
278.57,104.86,38.048,19.304
283.9,104.66,38.134,19.348
288.77,104.72,37.994,19.276
293.3,106.54,37.677,19.116
300.92,99.863,37.371,18.96
319,91.421,37.402,18.976
327.06,87.814,37.466,19.009
323.9,87.947,37.491,19.021
321.81,88.317,37.461,19.006
325.83,87.32,37.379,18.965
327.43,87.473,37.372,18.961
324.48,90.391,37.32,18.934
328.23,91.728,37.246,18.897
333.25,94.002,37.418,18.984
330.26,99.703,37.487,19.019
307.62,116.48,37.366,18.958
319.2,122.63,37.459,19.005
335.18,135.87,37.763,19.159
357.09,143.35,37.753,19.154
382.9,150.94,37.934,19.246
411.49,157.69,37.956,19.257
301.05,90.053,37.897,19.227
297.99,83.734,37.933,19.246
295.1,80.418,37.902,19.229
293.35,76.499,37.999,19.279
291.29,71.792,38.072,19.316
288.85,68.091,38.201,19.381
287.14,67.881,38.212,19.387
285.4,68.11,38.299,19.431
285.16,68.569,38.275,19.419
284.48,72.069,38.414,19.49
284.92,80.833,38.627,19.598
285.69,86.056,38.445,19.505
291.07,92.823,38.418,19.491
