46.5,133.5,124,108
48.282,136.76,123.8,107.83
47.938,136.68,124.41,108.36
47.775,136.67,123.2,107.3
47.42,136.64,122.44,106.64
46.616,136.13,122.51,106.71
46.231,135.53,122.3,106.52
46.043,135.14,123.28,107.37
46.115,134.56,124.03,108.02
46.328,133.75,123.8,107.83
46.458,133.48,124.99,108.86
46.211,133.33,124.82,108.72
47.144,133.49,124.1,108.09
47.567,134.43,123.05,107.18
47.481,134.15,122.29,106.51
47.402,134.14,122.72,106.89
46.735,133.49,123.02,107.14
46.296,133.06,122.3,106.52
45.667,131.39,122.9,107.04
45.027,131.11,123.68,107.72
45.478,131.23,123.79,107.82
44.679,130.73,125,108.87
44.809,130.79,124.71,108.62
44.571,131.8,124.64,108.56
45.605,131.21,124.73,108.63
45.174,131.45,124.98,108.85
44.167,130.81,125.42,109.24
44.995,131.08,125.48,109.29
43.854,130.62,125.57,109.37
44.557,130.62,125.93,109.68
44.695,130.34,125.99,109.73
44.398,132.14,125.98,109.73
45.495,132.15,124.98,108.86
45.953,131.6,125.12,108.98
46.231,132.28,124.41,108.36
46.74,132.32,124.74,108.64
47.102,133.14,124.68,108.59
47.368,133.21,124.17,108.15
46.678,134.23,124.39,108.34
45.962,134.38,123.7,107.73
45.705,134.62,124.05,108.04
45.804,135.08,123.81,107.84
45.883,135.29,123.92,107.93
45.349,135.7,124.31,108.27
46.039,136.44,123.81,107.83
45.702,136.57,124.18,108.16
45.576,135.96,123.69,107.73
45.38,135.65,124.39,108.34
44.851,136.43,124.47,108.41
45.515,136.04,123.41,107.48
45.656,136.43,123.06,107.18
45.335,135.77,123.4,107.48
45.003,135.95,123.62,107.67
45.024,135.75,122.98,107.11
45.361,135.4,123.03,107.15
45.475,134.78,123.25,107.35
45.306,134.55,123.96,107.97
45.08,133.3,124.91,108.79
44.989,132.64,125.47,109.28
44.785,132.38,125.11,108.97
45.109,132.09,125.24,109.08
45.305,132.24,125.54,109.34
45.873,131.83,125.26,109.1
45.982,132.05,124.8,108.69
46.238,131.82,124.49,108.43
46.378,131.63,124.12,108.11
46.667,132.01,124.19,108.17
47.898,132.16,124.23,108.2
49.474,132.89,124.34,108.29
51.655,134.3,123.49,107.55
53.954,135.52,122.72,106.88
57.276,137.14,122.58,106.77
63.006,140.55,122.37,106.58
68.798,144.26,122.74,106.9
72.851,147.95,123.3,107.39
79.785,152.21,122.83,106.98
85.77,159.54,122.36,106.57
94.978,167.92,123.11,107.22
101.33,173.24,122.69,106.86
106.05,178.26,123.44,107.51
111.7,182.22,123.06,107.18
116.71,184.05,123.18,107.28
124.04,187.06,123,107.13
127.49,188.87,123.16,107.26
130.6,190.25,123.34,107.43
132.61,191.76,123.37,107.45
134.82,193.35,123.48,107.55
138.55,195.88,122.25,106.48
140.82,197.97,122.51,106.7
142.26,199.79,122.33,106.55
145.49,202.02,122.71,106.87
148.86,202.61,122.72,106.89
153.35,203.05,122.64,106.81
156.01,203.12,122.57,106.75
159.33,203.7,121.21,105.57
163.34,202.38,121.81,106.09
166.71,200.05,122.17,106.41
173.02,196.03,120.79,105.21
175.31,192.77,119.74,104.29
180.89,190.58,119.86,104.4
179.65,193.67,119.28,103.89
181.83,193.53,119.24,103.85
180.86,192.68,118.69,103.38
183.72,191.81,117.87,102.66
185.08,192.54,117.46,102.31
186.99,192.97,117.31,102.17
189.22,193.46,117.18,102.06
195.85,196.29,117.27,102.14
199.47,198.08,117.49,102.33
203.8,197.36,117.85,102.64
208.02,198.49,116.39,101.37
211.18,196.51,116.22,101.22
215.87,197.01,115.98,101.01
222.48,195.5,116.24,101.24
223.19,194.45,116.44,101.41
226.63,193.95,116.99,101.9
229.7,194.89,117,101.9
232.65,193.33,117.36,102.22
233.99,192.85,117.56,102.39
235.09,192.31,117.18,102.06
235.81,192.09,117,101.9
236.25,191.34,117.23,102.1
236.01,190.39,116.88,101.8
237,191.2,116.82,101.74
237.49,190.69,116.63,101.58
238.33,190.58,116.94,101.85
238.25,190.76,117.18,102.06
234.57,189.89,117.37,102.22
232.74,190.52,117.38,102.23
228.3,190.51,118.12,102.88
224.16,189.91,118.66,103.35
220.04,189.15,119.44,104.03
211.4,189.86,120.03,104.55
206.77,189.47,119.63,104.19
199.43,190.54,119.45,104.04
193.42,191.34,119.39,103.98
188.29,191.15,119.43,104.02
183.7,190.94,119.57,104.14
179.78,190.04,120.01,104.53
179.26,190.31,120.32,104.79
177.1,190.12,120.88,105.28
158.07,188.97,120.47,104.93
156.75,188.98,120.3,104.77
157.26,190.03,120.08,104.59
157.08,190.21,120.42,104.88
162.81,191.26,120.36,104.83
165.17,192.65,120.28,104.76
171.58,192.91,120.77,105.18
172.81,193.81,121.06,105.44
174.54,193.82,121.22,105.58
175.65,194.3,121.61,105.92
175.06,193.85,121.69,105.99
175.3,194.27,121.81,106.09
176,194.33,121.67,105.97
175.89,193.83,121.66,105.96
176.03,193.28,121.53,105.85
176.58,192.87,121.42,105.75
178.34,192.97,120.96,105.35
180.37,192.22,120.75,105.17
184.03,192.32,119.33,103.93
188.38,192.42,118.84,103.51
192.97,191.79,118.77,103.45
199.4,191.07,117.88,102.67
214.47,191.16,117.79,102.6
221.78,190.17,117.56,102.39
228.34,189.66,116.21,101.22
230.01,189.1,116.19,101.2
237.07,188.33,115.43,100.53
271.59,182.47,116.2,101.21
274.93,182.24,116.69,101.64
270.86,180.31,116.4,101.38
278.96,180.82,117,101.9
380.82,205.35,117.42,102.27
386.48,209.45,118.45,103.17
392.2,210.99,119.29,103.9
397.1,209.22,119.6,104.17
408.41,209.99,118.96,103.61
419.31,208.74,118.28,103.02
443.37,208.63,119.08,103.71
452.98,208.71,120.64,105.08
463.67,206.73,121.19,105.56
471.57,205.34,121.72,106.01
478.55,203.62,121.79,106.07
492.34,203.4,122.09,106.34
496.51,203.1,122.29,106.51
498.37,202.19,122.06,106.31
499.72,201.57,120.8,105.21
501.99,202.95,119.83,104.37
501.62,202.5,119.25,103.86
500.09,201.5,118.84,103.51
499.23,201.44,118.59,103.29
497.65,200.62,118.46,103.18
497.43,201.61,118.74,103.42
496.64,200.15,119.55,104.12
497.84,199.56,119.71,104.27
499.8,197.77,120.1,104.6
503.78,195.89,120.21,104.7
509.01,193.86,120.77,105.18
520.21,190.13,120.76,105.18
527.91,186.52,120.59,105.03
535.5,183.08,120.36,104.83
542.81,180.35,119.96,104.48
549.25,176.72,118.96,103.61
555.65,170.32,119.31,103.91
558.53,166.92,119.99,104.51
561.12,163.55,120.74,105.16
559.13,159.87,120.72,105.14
557.42,160.11,121.48,105.81
551.89,163.46,122.06,106.31
551.35,166.91,122.77,106.93
552.76,165.76,123.47,107.54
549.56,166.1,124.32,108.28
550.89,165.43,124.53,108.46
549.38,165.66,124.76,108.67
549.89,165.64,124.86,108.75
549.41,164.79,124.76,108.66
551.45,163.55,124.84,108.73
548.77,163.67,124.9,108.78
550.16,163.09,125.14,108.99
549.84,163.01,125.37,109.2
555.88,149.31,125.54,109.34
554.5,147.51,125.3,109.13
553.76,147.42,125.42,109.23
551.17,148.1,125.61,109.41
549.92,148.12,125.94,109.69
548.37,147.58,125.81,109.58
547.35,148.77,125.61,109.4
547.62,150.65,125.83,109.59
544.86,151.59,125.67,109.46
543.64,151.54,126.32,110.02
542,152.03,126.18,109.9
539.81,151.92,126.52,110.19
539.89,152.35,127,110.61
538.68,152.56,127.11,110.71
537.83,152.83,127.65,111.18
537.54,152.79,128.65,112.05
535.6,152.84,130,113.22
532.98,153.5,131.29,114.35
527.17,155.31,131.19,114.27
524.52,156.63,131.46,114.5
521.21,157.59,131.53,114.56
517.54,160.09,131.64,114.66
513.9,162.66,131.47,114.51
507.82,171.39,131.15,114.23
505.38,175.95,131.01,114.11
501.34,178.32,130.83,113.95
496.32,180.71,130.88,113.99
492.45,182.03,130.62,113.77
483.95,183.2,130.18,113.39
482.43,183.12,130.14,113.35
477.97,182.68,130.97,114.07
473.79,181.08,131.27,114.33
469.89,180.67,131.97,114.95
464.33,180.38,131.9,114.88
461.54,178.82,132.41,115.33
457.4,178.62,132.15,115.1
453.55,179.68,131.96,114.93
448.58,178.88,132.06,115.02
440.66,179.02,131.62,114.64
436.13,179.08,130.74,113.87
432.22,179.69,130.9,114.01
427.01,179.86,130.35,113.53
421.8,180.42,129.85,113.09
412.99,181.89,129.23,112.55
408.64,183.27,128.57,111.98
404.9,183.72,128.1,111.57
401.5,184.07,127.58,111.12
397.46,183.98,126.95,110.57
390.9,183.98,126.47,110.15
389.03,184.34,126.14,109.86
387.2,183.85,125.95,109.7
387.21,183.98,126.2,109.91
386.8,183.65,126.28,109.98
387.05,183.86,126.47,110.15
389.22,183.36,126.91,110.54
391.54,183.71,127.26,110.84
393.4,182.05,127.85,111.35
396.14,180.61,128.45,111.88
404.28,179.42,128.36,111.8
408.13,178.19,128.41,111.84
413.23,175.77,128.77,112.15
417.6,174.67,129.24,112.56
423.29,171.66,130.24,113.43
431.19,167.9,130.86,113.98
435.39,167.1,130.62,113.76
439.51,166.86,130.59,113.74
443.15,165.15,130.69,113.83
446.33,164.81,131.03,114.12
448.1,164.57,131.13,114.21
451.23,164.57,131.14,114.21
453.04,164.58,130.9,114.01
453.26,164.52,130.88,113.99
453.55,164.61,130.74,113.87
454.78,165.11,130.06,113.28
455,165.48,129.34,112.65
455.66,166.37,129.01,112.36
454.9,165.8,129.1,112.44
454.81,165.18,129.11,112.45
455.47,165.7,128.83,112.2
456.75,166.57,128.39,111.83
457.01,166.58,128.01,111.49
457.65,166.29,127.57,111.11
458.17,165.86,127.56,111.1
459.36,165.94,127.31,110.89
460.05,166.2,127.53,111.07
460.64,166.28,127.36,110.92
461.37,166.29,127.28,110.86
461.2,166.18,127.2,110.79
461.31,166.46,126.91,110.54
461.41,167.01,126.81,110.45
461.08,166.86,126.82,110.46
461.34,167.07,126.47,110.15
460.7,167.14,126.41,110.1
460.57,167.76,126.35,110.05
459.65,167.32,127.01,110.62
459.43,166.98,127.05,110.66
459.49,167.08,126.96,110.58
458.4,166.58,127.44,111
458.08,166.94,127.75,111.27
457.86,166.39,127.78,111.29
456.5,165.95,128.83,112.21
455.19,165.43,130.02,113.25
453.16,163.89,130.18,113.38
451.62,163.74,130.34,113.52
448.95,162.73,131.25,114.31
446.21,160.4,133.03,115.87
443.68,159.85,133.23,116.04
440.58,159.1,134.47,117.12
432.73,156.93,135.19,117.74
428.1,156.42,136.09,118.53
422.19,155.47,137.16,119.46
415.03,153.53,137.75,119.97
408.88,152.97,138.34,120.49
399.98,154.75,137.87,120.08
387.78,158.24,137.78,120
383.39,158.54,137.78,120
380.17,161.42,137.94,120.14
379.27,163.1,138.19,120.35
379.66,165.09,138.61,120.73
386.78,168.81,138.98,121.05
396.26,170.96,139.27,121.3
406.12,172.81,139.39,121.4
416.27,173.73,138.69,120.8
430.25,174.9,137.18,119.48
452.28,173.83,135.51,118.03
466.29,173.81,134.53,117.17
480.54,171.88,133.2,116.01
494.35,169.47,132.61,115.5
505.97,162.38,132.41,115.32
523.37,153.59,132.43,115.35
529.73,151.02,132.04,115
532.94,150.56,130.68,113.82
535.24,149.09,130.12,113.33
534.65,147.9,129.54,112.82
533.26,148.92,128.66,112.06
530.72,151.07,129.25,112.58
527.43,152.58,129.8,113.05
517.04,156.52,130.2,113.4
506.6,160.44,130.82,113.94
478.96,170.41,129.96,113.19
464,172.4,129.01,112.37
451.04,174.28,128.85,112.23
436.61,177.45,129.29,112.61
421.33,177.8,129.16,112.49
389.63,176.59,128.84,112.21
375.47,173.67,129.52,112.81
359.98,171.38,130.03,113.25
345.96,167.64,130.35,113.53
332.85,165.43,131.41,114.46
314.62,156.4,131.96,114.94
305.93,153.69,132,114.97
300.53,153.6,132.08,115.04
296.11,152.94,131.86,114.84
295.9,152.71,132.16,115.11
297.52,152.8,132.79,115.66
301.9,154.97,133.62,116.37
311.02,157.04,133.93,116.65
319.48,159.35,134.09,116.79
333.16,165.95,134.68,117.3
360.12,171.01,134.61,117.24
378.8,172.56,134.62,117.25
396.3,173.86,134.65,117.28
417.99,178.26,133.74,116.48
437.68,178.89,133.5,116.27
471.54,173.94,132.98,115.82
489.39,169.93,132.78,115.64
507.7,163.83,132.14,115.09
522.35,158.92,131.55,114.58
531.89,157.16,130.44,113.61
539.21,154.42,129.68,112.95
541.75,153.23,129.25,112.57
542.51,153.32,128.69,112.08
543.34,153.54,128.59,111.99
536.94,154.4,128.16,111.63
529.35,159.9,127.67,111.2
520.89,164.27,127.18,110.77
507.43,170.45,127.03,110.64
492.64,175.36,126.63,110.29
480.23,182.04,125.51,109.32
451.73,187.85,124.97,108.85
433.71,190.74,125.19,109.04
415.74,190.99,125.19,109.04
398.47,191.16,125.5,109.31
383.13,189.94,125.68,109.46
353.49,187.95,126.18,109.9
349.61,182.83,125.46,109.27
351.69,178.71,124.17,108.14
260.03,165.56,123.81,107.84
260.53,166.26,123.89,107.9
261.31,165.86,123.56,107.62
257.44,164.53,122.95,107.09
258.14,167.34,122.48,106.68
254.47,168.25,121.73,106.02
251.78,168.34,120.81,105.22
245.79,170.44,119.97,104.49
242.99,171.83,119.24,103.85
239.18,172.92,119.2,103.82
234.12,174.49,119.13,103.76
230.53,176.06,119.23,103.85
317.56,183.73,119.42,104.01
321.71,185.37,119.87,104.4
325.11,187.35,119.87,104.4
329.94,188.67,119.94,104.46
334.13,189.55,119.92,104.44
341.9,191.89,119.88,104.41
345.1,193.51,118.72,103.4
348.02,192.88,118.2,102.94
351.53,193.48,117.97,102.75
355.57,194.95,118.15,102.9
361.37,194.37,117.81,102.61
364.8,194.59,117.23,102.1
367,195,117.06,101.95
368.44,195.06,117.03,101.93
369.38,194.25,116.37,101.35
372.21,193.22,115.55,100.64
372.34,193.8,115.02,100.18
372.49,193.25,114.74,99.939
371.97,193.21,114.13,99.408
371.78,192.54,113.85,99.163
369.14,189.95,113.29,98.671
369.86,185.2,113,98.423
367.96,185.6,112.34,97.841
367.84,177.01,112.23,97.746
366.79,177.65,112.07,97.613
363.07,182.98,111.95,97.508
362.69,182.51,111.71,97.295
361.75,182.23,111.4,97.024
359.44,183.71,112.04,97.584
358.23,181.8,112.09,97.629
352.5,181.01,112.47,97.958
350.76,182.42,113.02,98.441
347.51,182.8,114.54,99.759
343.7,181.56,115.74,100.81
340.35,178.93,116.29,101.29
334.8,176.76,117.45,102.29
331.43,175.71,118.45,103.16
326.75,172.64,119.45,104.04
322.98,172.43,120.08,104.58
318.95,169.22,120.3,104.78
314.2,168.21,120.54,104.99
313.5,165.55,120.56,105
312.11,164.35,120.81,105.22
310.63,164.13,120.88,105.28
309.04,163.98,121.24,105.6
307.39,162.84,121.64,105.95
305.43,162.12,121.38,105.72
304.73,161.73,121.97,106.24
303.51,161.23,122.08,106.32
302.43,160.85,122.4,106.6
302.11,160.48,122.75,106.91
301.17,160.18,123.54,107.6
298.34,159.24,123.33,107.42
296.63,158.94,124.09,108.08
294.06,158.52,124.35,108.31
291.57,157.75,124.38,108.33
290.88,157.59,124.53,108.46
289.8,157.63,124.83,108.72
289.43,157.46,124.96,108.83
288.29,157.21,125.16,109.01
288.28,157.15,125.29,109.13
287.76,156.53,125.25,109.09
287.78,156.55,125.88,109.64
286.74,156.02,126.25,109.96
286.45,156.22,126.78,110.42
285.82,155.48,127.51,111.06
285.33,155.27,127.87,111.37
284.86,155.06,128,111.49
284.28,154.02,128.48,111.9
284.1,154.02,128.91,112.28
283.98,154.19,129.24,112.56
283.54,153.27,129.87,113.12
284.22,153.58,130.05,113.27
283.24,153.26,130.46,113.62
284.03,153.63,130.42,113.59
283.81,153.77,130.4,113.57
283.86,153.83,130.42,113.59
283.47,153.83,130.44,113.61
283.74,153.89,130.35,113.53
284.02,154.02,130.26,113.45
284.32,154.25,130.16,113.37
284.12,154.43,130.02,113.24
284.03,154.44,129.94,113.17
284.34,154.65,129.92,113.16
283.89,154.69,130.51,113.67
282.8,154.76,130.89,114
282.65,155.26,131.19,114.26
280.47,155.07,132.91,115.76
278.75,154.88,134.77,117.38
277.89,155.07,136.69,119.05
275.98,154.7,137.57,119.82
275.83,154.09,137.73,119.96
276.47,153.52,137.94,120.15
277.97,154.27,137.26,119.55
278.41,154.44,136.96,119.28
278.09,155.44,137.14,119.44
277.57,156.28,137.48,119.74
276.14,155.96,138.13,120.31
275.28,156.18,139.85,121.8
274.42,156.73,141.11,122.9
272.79,156.89,142.44,124.06
273.43,158.26,143.52,125
275,158.44,143.92,125.35
277.56,161.51,144.32,125.69
285.18,165.16,142.32,123.95
296.89,167.95,140.11,122.03
312.15,179.15,140.11,122.04
323.7,186.03,140.42,122.3
336.01,192.74,140.29,122.19
347.21,198.66,141.29,123.06
360.58,201.94,141.19,122.97
381.9,206.16,140.44,122.32
388.42,208.7,140.26,122.16
392.18,208.41,139.6,121.58
394.58,207.58,138.81,120.9
395.18,207.59,138.82,120.91
395.78,207.96,138.58,120.7
395.37,207.25,138.15,120.32
393.84,207.91,138.35,120.5
391.2,207.07,138.32,120.47
388.67,207.83,139.17,121.22
383.83,208.17,138.63,120.74
382.19,207.2,139.15,121.2
379.69,206.39,140.11,122.03
377.82,204.75,140.61,122.47
374.92,203.02,140.38,122.27
372.4,197.09,139.7,121.67
373.62,189.04,138.1,120.28
374.8,179.47,136.65,119.02
376.76,168.49,135.69,118.19
378.82,154.28,135.33,117.87
378.33,115.87,135.43,117.96
378.31,95.733,136.01,118.46
374.15,81.641,136.96,119.29
375.15,77.02,137.17,119.47
378.02,75.421,137.7,119.94
381.35,65.659,138.44,120.58
381.48,60.461,138.33,120.48
381.84,55.493,138.29,120.45
381.55,52.408,137.64,119.88
382.04,51.388,136.62,118.99
380.79,49.092,135.92,118.38
379.74,47.842,135.07,117.64
379.85,48.004,135.38,117.91
378.97,47.82,134.38,117.04
378.45,47.723,133.43,116.22
378.77,48.809,133.69,116.44
379.27,49.01,134.08,116.78
377.86,48.515,133.94,116.66
377.83,48.542,133.14,115.96
378.4,48.686,133.37,116.16
377.88,48.321,133.07,115.9
377.37,48.018,133.17,115.99
378.05,48.199,134.13,116.82
377.76,48.188,134.37,117.03
376.77,48.055,134.43,117.08
377.22,48.628,134.42,117.08
377.17,49.883,134.56,117.2
377.67,51.946,135.44,117.96
377.46,54.779,135.54,118.05
377.33,59.567,135.24,117.79
375.22,67.101,135.67,118.16
372.98,71.138,136.31,118.72
368.95,73.471,136.65,119.02
363.65,75.765,136.49,118.88
357.94,79.407,135.55,118.06
349.61,110.21,135,117.58
345.17,125.42,134.98,117.56
341.72,137.86,134.28,116.95
337.67,151.68,134.28,116.95
336.32,159.09,134.28,116.96
334.42,164.24,133.72,116.46
331.14,164.12,133.35,116.15
327.7,164.49,133.19,116.01
325.68,165.06,132.92,115.77
323.45,165.87,132.84,115.7
320.77,164.78,131.76,114.76
318.79,163.98,132.09,115.04
318.95,164.94,132.31,115.23
315.46,163.44,132.76,115.63
315.39,163.1,133.18,115.99
313.03,161.33,132.98,115.82
314.02,161.84,133.33,116.13
314.79,163.15,133.92,116.64
313.05,160.96,134.03,116.74
313.7,160.84,133.94,116.65
312.42,160.59,133.79,116.52
312.02,160.25,133.77,116.51
314.25,160.34,134.34,117.01
314.41,160.04,134.79,117.4
315.94,160.14,134.86,117.46
315.66,158.75,134.33,116.99
316.67,158.61,134.08,116.78
317.36,158.37,133.54,116.31
320.46,159.97,132.54,115.43
324.48,161.82,130.88,113.99
335.52,163.49,130.05,113.27
340.81,162.83,129.06,112.4
347.13,163.21,127.43,110.99
353.11,166.29,126.37,110.06
358.66,167.78,125.04,108.9
368.66,173.19,123.76,107.79
376.36,174.56,122.33,106.55
381.42,176.19,121.33,105.67
384.2,178.13,121.01,105.4
385.43,179.05,120.72,105.14
389.07,180.67,120.17,104.66
390.84,181.43,119.26,103.87
391.85,181.53,118.89,103.55
392.68,182.16,118.67,103.36
392.37,181.98,118.61,103.31
390.08,182.21,118.16,102.91
389.11,182.45,118.21,102.96
388.13,182.6,118.01,102.78
387.56,182.77,118.28,103.02
385.36,182.15,118.47,103.18
385.1,181.52,118.81,103.48
385.08,181.55,119.04,103.68
384.9,181.15,119.22,103.84
384.37,180.57,119.35,103.95
384.6,180.62,119.59,104.16
383.89,180.04,119.06,103.69
383.4,179.48,119.54,104.11
384.02,179.73,119.64,104.2
383.25,179.29,120,104.52
383.22,179.47,120.23,104.72
382.07,179.51,120.38,104.85
381.21,179.99,121.2,105.57
379.84,180.14,121.26,105.61
378.06,179.71,121.28,105.63
376.73,180.22,121.66,105.96
371.06,180.01,121.3,105.65
367.15,179.72,122.29,106.51
363,179.38,122.76,106.92
356.9,178.89,123.12,107.23
352.34,177.89,124.3,108.26
348.99,177.9,123.59,107.64
347.43,174.47,122.64,106.82
349.86,172.99,123.17,107.28
348.68,148.84,123.17,107.28
277.96,172.11,122.48,106.68
282.85,169.55,122.6,106.78
290.04,166.89,122.63,106.81
291.54,165.09,122.86,107.01
295.81,164.91,123.32,107.41
297.43,164.64,123.62,107.67
294.92,163.72,123.9,107.92
292.08,163.91,122.55,106.74
287.76,164.18,122.5,106.69
282.33,164.84,122.23,106.46
277.46,164.93,122.22,106.45
262.69,168.96,121.81,106.09
260.02,167.07,121.34,105.68
354.31,184.25,121.51,105.83
361.22,185.35,121.75,106.04
369.59,186.95,121.72,106.01
378.17,186.22,121.86,106.14
387.79,188.12,122.24,106.47
392.95,187.51,122.61,106.79
399.96,187.99,122.08,106.33
405.22,190.45,121.12,105.49
407.87,189.41,120.48,104.93
420.17,191.07,120.18,104.67
424.38,190.78,119.4,103.99
427.14,186.19,118.54,103.24
431.71,183.94,117.57,102.4
434.12,185.79,116.46,101.44
445.18,194.92,116.51,101.48
445.96,196.34,116.09,101.11
446.53,196.19,115.88,100.93
448.54,197.17,114.12,99.394
450.54,196.79,112.87,98.304
446.51,193.47,114.08,99.361
443.69,192.3,116.12,101.14
439.28,190.91,117.05,101.95
436.52,189.95,116.88,101.8
432.78,187.56,116.83,101.75
429.08,185.19,117.11,102
427.37,183.89,117.69,102.51
424.92,181.8,118.72,103.4
422.63,180.06,119.66,104.22
420.34,178.7,120.53,104.98
418.78,175.92,121.9,106.17
418.35,174.68,122.54,106.73
417.75,172.85,123.14,107.25
418.96,172.04,123.37,107.45
421.58,171.11,122.94,107.07
427.16,170.04,122.08,106.32
432.32,169.77,122.62,106.8
441.54,170.05,121.84,106.12
449.64,169.82,122.16,106.39
457.42,169.57,121.64,105.94
468.83,166.05,120.65,105.08
476.11,164.3,120.62,105.05
478.23,157.72,120.74,105.16
478.37,152.43,119.98,104.5
484.88,151.24,118.4,103.12
498.35,148.22,117.83,102.63
502.45,146.01,117.14,102.02
507.74,144.5,116.76,101.7
510.7,143.55,115.88,100.93
512.97,144.16,115.15,100.29
514.27,144.33,114.13,99.404
514.32,145.53,114.3,99.556
513.68,146.67,114.68,99.88
512.42,149.01,114.79,99.981
512.23,150.01,114.67,99.871
511.23,153.24,114.86,100.04
511.15,154.53,115.23,100.36
510.93,155.29,114.6,99.811
512.55,157.9,114.84,100.02
514.42,157.91,113.86,99.167
520.65,157.4,113.78,99.096
527.83,156.25,112.92,98.346
535.29,153.91,112.43,97.922
542.2,151.14,111.53,97.135
550.86,147.88,110.93,96.617
559.7,143.21,111.28,96.923
562.02,140.47,111.58,97.181
564.55,138.64,111.26,96.908
565.7,137.62,111,96.675
566.06,136.23,110.13,95.922
565.77,136.38,109.78,95.614
565.1,139.13,110.63,96.352
559.61,142.08,111.41,97.037
549.51,145.75,111,96.674
541.94,150.8,111.26,96.902
520.96,160.02,111.15,96.808
507.44,166.29,111.96,97.51
488.84,174.4,112.52,97.999
469.59,183.32,113.26,98.646
455.71,187.63,113.13,98.535
433.06,188.87,113.32,98.701
402.78,196.19,113.29,98.673
393.23,195,112.39,97.887
320.85,136.84,113.05,98.459
329.79,132.06,113.85,99.157
345.37,123.79,115.15,100.29
349.83,120.35,116.7,101.64
328.94,183.06,116.98,101.89
329.5,182.69,117.54,102.38
328.35,182.85,117.92,102.71
328.87,187.33,118.23,102.98
327.1,190.74,118.09,102.86
335.61,136.17,118.97,103.62
324.62,145.48,119.64,104.2
311.72,150.53,120.9,105.3
389.96,206.34,120.38,104.85
402.75,206.96,120.12,104.62
417.86,208.27,119.8,104.35
433.19,208.67,119.67,104.23
444.75,207.93,119.3,103.91
467.58,208.59,118.75,103.43
474.87,207.36,119,103.65
486.19,203.69,118.68,103.37
493.29,202.33,118.08,102.85
499.7,200.23,117.93,102.72
509.34,196.61,117.71,102.52
512.48,194.33,116.61,101.56
515.31,194.65,115.8,100.86
516.85,194.39,115.35,100.47
517.64,195.28,114.85,100.03
514.21,198.38,114.47,99.699
509.29,201.35,114.83,100.01
500.73,205.95,114.64,99.849
493.84,208.37,115.23,100.36
485.72,213.35,115.95,100.99
465.45,219.2,116.64,101.59
452.86,223.85,116.24,101.24
442.38,224.08,116.64,101.59
429.92,228.12,116.06,101.09
421.27,228.34,115.95,100.99
345.5,193.22,116.47,101.44
349.01,190.98,116.92,101.84
353.67,187.65,117.16,102.04
358.36,183.63,117.27,102.14
359.8,182.48,117.69,102.51
360.14,181.8,118.25,102.99
356.53,183.32,118.36,103.09
349.07,187,118.68,103.37
340.99,190.52,119.05,103.69
330.92,194.31,119.57,104.14
311.6,200.86,119.29,103.9
300.06,204.91,119.69,104.24
392.81,226.55,119.92,104.44
405.87,225.03,120.38,104.85
416.2,224.64,121.06,105.44
435.13,227.01,120.62,105.05
445.96,225.16,119.23,103.85
458.61,223.29,119.27,103.88
468.89,222.61,119.28,103.89
476.53,222.75,119.29,103.9
487.14,220.04,118.78,103.45
490.6,221.78,117.38,102.24
495.15,220.2,116.27,101.27
497.19,219.02,115.36,100.47
498,219.88,114.66,99.869
499.28,219.92,114.15,99.42
499.7,220.13,114.12,99.397
498.78,220.73,114.56,99.78
495.73,222.39,115,100.16
491.42,224.05,115.41,100.52
483.9,226.49,116.1,101.12
480.59,227.95,117.02,101.92
475.82,226.77,117.76,102.57
468.2,224.05,118.2,102.95
461.01,219.47,119.14,103.77
449.62,211.3,119.04,103.68
444.57,207.2,119.29,103.9
439.8,198.95,120.42,104.88
435.8,197.79,120.94,105.34
432.06,194.29,120.5,104.95
427.33,188.34,119.95,104.47
425.34,186.81,120.11,104.61
422.56,184.02,120.07,104.57
420.99,182.94,120.35,104.82
421.33,183.22,120.66,105.09
423.7,184.88,119.75,104.3
426.99,187.78,118.56,103.26
431.54,191.64,117.9,102.69
436.98,196.42,118.17,102.92
443.21,201.75,117.45,102.3
456.37,210.29,116.93,101.85
464.29,213.13,116.31,101.3
471.13,214.88,115.4,100.51
477.84,215.29,115.96,101
483.86,214.87,116.13,101.15
488.03,213.89,115.77,100.83
494.85,211.49,115.34,100.46
497.55,211.09,114.88,100.06
500.62,210.26,114.06,99.343
502.06,209.7,113.52,98.873
502.95,209.19,112.76,98.21
501.32,209.89,112.52,97.998
497.99,211.63,112.71,98.168
494.33,214.3,112.67,98.132
488.92,217.74,112.75,98.201
482.57,221.19,112.76,98.214
472.96,225.5,113.14,98.537
467.78,228.1,114.21,99.469
461.96,228.98,115.56,100.65
457.26,230.31,116.72,101.66
451.33,230.31,117.56,102.39
446.51,229.41,117.81,102.61
444.3,226.87,117.32,102.18
443.77,222.37,117.17,102.05
443.73,216.96,116.53,101.5
442.97,208.86,116.07,101.09
443.34,198.21,116.17,101.18
443.27,193.81,116.02,101.05
444.17,185.07,115.29,100.41
444.58,176.32,114.85,100.03
441.46,167.1,115.94,100.98
434.43,157.09,115.99,101.02
431.11,153.42,117.07,101.96
428.14,150.59,118.09,102.85
425.94,149.75,118.64,103.33
423.99,149.95,119.18,103.8
426.59,154.92,119.91,104.44
431.45,160.69,120.11,104.62
436.07,166.1,121.24,105.59
443.59,174,120.63,105.07
449.05,180.86,120.21,104.7
450.16,184.31,119.13,103.76
454.8,189.52,119.51,104.09
458.74,195.9,119.41,104
463.74,200.75,118.61,103.31
464.35,204.08,118.38,103.1
460.58,209.34,119.4,103.99
453.37,212.17,120.35,104.82
445.86,214.98,120.44,104.9
434.95,216.34,121.96,106.22
425.12,217.38,122.22,106.45
407.39,216.5,122.44,106.64
394.97,216.63,122.51,106.7
383.03,215.59,122.55,106.74
372.73,214.77,122.98,107.11
366.6,215.63,121.9,106.17
299.72,208.16,121.55,105.86
304.93,207.53,121.58,105.89
315.43,204.86,121.57,105.88
326.36,201.85,122.06,106.31
332.12,201.08,122.84,106.99
338.3,200.42,123.26,107.36
341.85,197.88,124.33,108.28
340.49,197.18,125.04,108.91
337.65,197.17,125.58,109.37
333.89,196.65,125.3,109.13
324.89,196.37,125.92,109.67
317.87,197.44,126.51,110.19
309.2,196.79,126.72,110.37
299.81,197.04,126.37,110.06
292.27,196.41,127.01,110.62
272.25,194.39,127.16,110.76
376.17,208.79,126.44,110.13
387.61,209.8,125.85,109.61
402.66,209.31,124.85,108.74
412.04,207.09,123.46,107.53
431.89,202.52,123.59,107.65
442.52,207.76,123.83,107.85
453.74,207.5,123.87,107.89
463.4,206.89,123.47,107.54
471.74,204.92,122.18,106.41
479.72,200.95,121.43,105.76
482.28,199.89,120.95,105.34
483.33,199.12,120.92,105.31
484.49,198.57,120.79,105.2
484.97,198.8,120.7,105.13
485.16,197.4,120.59,105.03
484.81,197.65,120.56,105
483.04,196.58,120.87,105.27
482.56,196.2,121.35,105.69
482,195.65,121.71,106.01
482.21,194.41,121.57,105.89
481.54,193.02,121.7,106
482.14,192.34,121.6,105.91
481.19,191.34,121.94,106.21
481.08,190.76,122.1,106.34
480.57,190.43,122.38,106.59
480.94,190.39,122.42,106.63
480.77,189.92,122.59,106.77
480.02,189.43,122.87,107.02
480.67,189.48,122.71,106.87
480.56,188.94,122.77,106.93
480.84,189.03,122.63,106.81
480.38,188.47,122.52,106.71
479.76,188.26,122.91,107.05
479.85,188.36,123.2,107.3
479.23,187.86,123.49,107.56
479.06,187.1,123.73,107.76
479.26,187.56,123.98,107.98
478.5,186.7,124.14,108.12
478.01,187.07,124.43,108.38
477.74,186.34,124.87,108.76
477.52,186.34,125.12,108.98
477.38,186.35,125.18,109.03
477.55,186.37,125.03,108.9
477.73,186.25,124.94,108.82
477.72,186.57,124.82,108.72
477.82,186.79,124.91,108.79
477.93,186.94,124.9,108.78
478.03,187.21,124.93,108.81
477.55,187.81,125.02,108.89
477.65,188.97,124.98,108.85
476.86,189.41,125.06,108.93
477.19,190.78,124.87,108.76
476.6,191.11,125.36,109.19
476.14,191.87,126,109.74
475.1,193.14,126.47,110.15
474.61,193.79,127.46,111.01
474.83,194.65,127.68,111.21
475.07,195.98,127.84,111.35
475.27,196.84,127.85,111.35
475.59,198.64,127.74,111.25
476.21,200.27,127.05,110.66
477.19,201.83,126.61,110.27
478.17,203.93,126.3,110
478.74,206,126.38,110.07
478.74,209.01,126.13,109.85
478.35,211.59,125.89,109.65
477.83,213.17,125.65,109.43
476.36,213.76,126.11,109.84
474.97,214.18,126.7,110.35
473.4,213.9,127.34,110.91
471.99,213.61,128.65,112.05
470.66,213.76,129.63,112.9
469.93,215.05,130.26,113.45
470.81,217.55,129.64,112.91
471.06,219.49,129.45,112.75
470.91,220.95,129.33,112.64
471.26,223.49,128.94,112.3
472.08,225.67,128.66,112.06
472.15,227.09,128.45,111.88
473.62,229.19,127.74,111.26
474.37,230.24,126.5,110.18
475.51,230.95,125.43,109.25
475.69,230.84,124.73,108.63
476.64,230.88,124.15,108.13
477.37,230.6,123.6,107.65
478.45,230.44,123.07,107.19
478.9,229.93,122.85,107
480.14,230.71,122.13,106.37
480.73,230.32,121.51,105.83
482.04,230.9,120.57,105.02
482.86,231.4,120.2,104.69
483.26,232.53,119.7,104.26
483.8,233.66,119.61,104.18
483.65,234.99,119.61,104.17
481.9,236.83,120.17,104.66
479.94,238.42,121.13,105.5
477.89,240.36,121.07,105.45
475.66,241.35,121.33,105.67
472.71,242.74,122.03,106.28
468.61,242.85,121.76,106.05
461.02,240.97,122.59,106.77
456.65,238.41,122.88,107.02
451.54,236.02,123.28,107.38
448.69,234.55,123.27,107.37
446.24,233.4,122.98,107.11
443.61,232.69,122,106.25
441.87,233.25,121.5,105.82
439.66,233.96,122.36,106.57
438.4,235.54,122.53,106.72
437.31,237.01,122.78,106.94
436.46,239.48,123.63,107.68
435.08,241.64,124.43,108.37
434.67,242.93,124.89,108.77
433.73,246.21,125.51,109.32
434.44,250.55,125.61,109.4
438.95,256.26,123.99,107.99
442.42,260.11,122.97,107.11
446.94,263.02,122.45,106.65
451.28,265.64,122.28,106.5
456.5,267.94,122.05,106.3
461.69,270.18,121.67,105.97
464.56,271.77,121.43,105.77
466.44,273.89,121.6,105.91
467.06,275.23,121.56,105.88
466.6,277.49,121.04,105.42
460.78,279.73,121.7,106
455.58,281.48,122.21,106.45
447.96,282.73,122.29,106.51
439.99,283.41,122.85,106.99
431.95,283.56,123.61,107.66
421.2,284.65,123.07,107.19
415.99,285.06,122.51,106.7
410.66,284.85,122.05,106.3
406.68,284.74,121.74,106.03
403.55,283.95,122.31,106.53
399.36,281.37,123.19,107.3
398.75,278.55,123.11,107.22
396.81,275.96,123.03,107.16
396.12,275.12,122.67,106.84
396.74,271.28,122.53,106.72
392.09,272.25,122.76,106.92
389.49,274.11,123.74,107.78
386.43,274.15,124.35,108.3
384.52,274.22,125.05,108.92
384.65,273.3,125.28,109.11
385.72,273.75,125.76,109.54
386.67,274.19,126.03,109.76
388.36,273.22,125,108.87
390.26,273.14,123.88,107.89
393.47,272.66,122.66,106.83
398.52,272.59,121.18,105.54
402.92,273.34,120.11,104.61
408.13,273.44,118.69,103.38
414.8,273.34,117.98,102.76
420.77,273.75,117.24,102.11
429.75,274.1,116.18,101.19
434.85,274.27,115.09,100.24
439.91,275.4,115.83,100.89
443.7,273.12,116.14,101.16
448.43,272.82,115.26,100.38
454.09,269.67,114.7,99.9
455.4,267.49,114.93,100.1
457.88,266.26,115.66,100.74
458.33,264.99,116.53,101.5
464.82,271.38,117.08,101.97
467.66,276.59,116.93,101.84
466.31,276.66,116.75,101.68
461.58,276.96,117.06,101.95
454.68,277.38,117.64,102.46
445.97,277.98,118.16,102.91
433.23,280.29,117.46,102.3
423.79,281.09,117.66,102.48
413.08,280.54,118.17,102.92
403.13,280.53,119.52,104.1
394.95,281.65,120.9,105.3
383.65,281.57,120.47,104.92
376.2,279.44,120.86,105.27
292.88,258.94,122.24,106.47
295.48,259.04,123.56,107.61
295.4,257.79,124.05,108.04
294.99,258.73,124.31,108.27
292.58,262.52,125.22,109.06
286.44,261.44,125.08,108.94
280.31,263.01,125.31,109.14
272.11,262.98,125.68,109.46
256,266.77,126.15,109.87
367.09,276.89,126.34,110.03
376.23,276.84,126.78,110.42
384.62,277.22,127,110.61
393.54,277.36,126.17,109.89
410.3,277.31,124.67,108.58
418.93,276.36,123.79,107.81
428.86,276.2,122.38,106.59
437.44,274.7,122.19,106.43
444.27,272.14,121.69,105.99
451.81,267.93,121.73,106.02
455.84,265.26,121.61,105.92
458.31,262.89,121.64,105.94
459.54,261.48,121.36,105.7
459.9,260.56,121.7,106
457.11,258.43,121.8,106.09
453.27,257.28,122.13,106.37
448.2,256,123.07,107.19
441.49,255.33,123.57,107.63
433.91,255.11,124.18,108.16
422.22,255.69,124.21,108.18
414.66,255.55,124.34,108.3
407.25,254.82,124.48,108.42
400.14,254.46,124.48,108.42
393.51,253.62,124.44,108.39
382.33,252.05,124.69,108.6
377.27,251.09,124.59,108.51
371.38,249.64,124.28,108.24
367.08,248.67,123.78,107.81
363.74,247.75,123.56,107.62
359.45,246.09,123.61,107.66
357.82,245.38,123.56,107.62
356.53,245.21,123.2,107.3
356.19,245.52,123.1,107.21
356.61,245.63,122.97,107.1
359.8,245.96,122.52,106.71
363.67,246.14,122.1,106.34
368.25,246.36,121.94,106.21
374.41,246.31,121.99,106.25
379.66,245.66,122.22,106.45
388.77,245.19,122.06,106.31
392.95,244.28,121.86,106.14
398.53,243.59,121.55,105.86
403.15,241.18,120.83,105.24
408.6,239.66,119.96,104.48
414.29,236.55,119.93,104.46
417.66,235.64,119.13,103.76
419.82,233.82,118.55,103.25
422.52,233.47,117.7,102.51
423.74,232.47,117.1,101.99
425,232.17,116.39,101.37
425.74,231.32,115.92,100.97
425.97,231.03,115.42,100.52
425.33,230.68,115.73,100.8
423.94,230.58,116.12,101.14
421.72,230.63,116.85,101.77
419.77,230.5,117.83,102.63
417.73,230.39,118.57,103.27
415.96,229.79,119.37,103.96
414.54,229.85,119.88,104.42
413.2,229.95,120.31,104.79
411.61,229.9,121.12,105.49
410.11,229.26,121.62,105.92
409.25,229.4,122.35,106.57
408.62,229.93,122.76,106.92
408.31,230.12,123.28,107.38
407.84,230.06,123.76,107.79
407.73,229.82,124.11,108.1
407.51,229.26,123.69,107.73
407.52,229,123.71,107.75
407.77,228.65,123.73,107.76
408.84,228.74,123.21,107.31
408.61,228.09,122.9,107.04
409.49,228.16,122.22,106.45
410.15,227.67,122.26,106.48
411.1,227.42,122.19,106.42
411.86,226.3,122.39,106.6
412.6,225.78,122.3,106.52
413.82,225.33,122.08,106.32
413.87,224.58,121.73,106.02
414.27,224.3,121.36,105.7
414.64,224.37,120.9,105.3
413.69,223.71,121.17,105.54
412.19,222.63,121.73,106.02
410.91,222.34,122.23,106.46
409.62,222.1,122.91,107.05
408.38,221.2,123.88,107.9
408.18,221.17,124.42,108.37
407.74,220.55,124.83,108.73
408.31,220.3,124.74,108.65
409.53,220.07,124.78,108.68
410.74,219.42,124.45,108.4
411.34,218.62,124.22,108.19
413.27,218.83,123.24,107.34
414.88,218.27,122.21,106.44
415.64,217.64,121.97,106.23
416.21,217.31,121.99,106.25
416.26,217.18,122.04,106.29
416.82,216.63,121.82,106.1
417.6,216.76,121.7,105.99
417.93,216.77,121.2,105.56
418.49,216.37,121.23,105.58
420.11,216.72,120.54,104.98
420.66,216.55,120.02,104.53
421.5,216.97,119.62,104.19
421.76,217,119.27,103.88
421.94,216.87,119.21,103.83
423.04,217.01,118.88,103.54
423.75,217.74,118.72,103.4
423.83,217.38,117.95,102.73
425.6,218.36,117.3,102.17
426.85,218.36,116.58,101.54
428.53,219.13,116.12,101.14
429.89,219.58,115.26,100.39
430.76,220.27,113.83,99.146
430.28,220.85,112.48,97.968
427.88,218.75,111.89,97.457
425.1,211.81,112.4,97.893
424.45,210.55,113.33,98.709
423.32,212.52,113.71,99.042
422.51,213.99,114.76,99.951
420.3,214.35,116.09,101.11
418.1,216.54,117.82,102.61
416.1,216.39,119.28,103.89
413.83,216.33,121.42,105.75
410.76,215.86,123.32,107.41
404.38,215.73,125,108.87
400.93,215.12,126.38,110.07
399.3,215.59,127.56,111.1
396.04,216.68,128.81,112.19
394.24,217.21,129.81,113.06
392.07,218.55,131.72,114.72
389.53,220.64,132.75,115.62
388.33,222.49,134,116.71
385.89,224.48,135.77,118.25
384.6,224.88,137.34,119.62
385.41,226.82,137.93,120.14
385.78,229.36,138.14,120.32
385.33,229.94,138.47,120.6
382.75,229.6,138.71,120.81
382.04,230.76,138.31,120.46
378.92,230.01,138.6,120.71
377.19,229.48,138.48,120.61
375.45,229.36,137.55,119.8
372.84,228.53,137.79,120.01
371.25,228.37,137.51,119.76
368.59,228.4,138.07,120.25
367.17,227.83,138.54,120.66
366.71,226.2,138.42,120.56
365.29,226.89,138.09,120.27
364.39,226.72,137.75,119.98
364.12,227.5,138.42,120.56
363.31,227.04,138.29,120.45
363.71,226.57,137.55,119.8
365.46,227.25,137.25,119.54
366.6,225.56,136.24,118.66
367.88,226.47,135.17,117.73
368.28,226.81,134.41,117.07
368.09,226.38,133.35,116.14
368.35,226.19,132.77,115.64
369.97,226.82,132.8,115.66
372.6,225.71,132.67,115.55
370.79,225.01,133.12,115.94
370.35,224.41,132.72,115.59
370.82,224.41,132.8,115.67
371,224.03,132.85,115.71
372.16,223.18,132.08,115.04
373.98,223.56,130.94,114.04
375.66,224.93,129.9,113.14
379,225.79,128.76,112.15
382.23,226.55,128.62,112.02
386.7,226.71,128.28,111.73
390.39,226.86,128.77,112.15
394.82,225.34,128.13,111.59
397.65,224.34,127.48,111.03
400.04,224.37,127.05,110.65
403.03,223.59,126.49,110.17
404.4,224.17,126.16,109.88
405.06,224.04,125.86,109.62
405.27,224.58,125.91,109.66
403.5,225.27,127.02,110.63
400.94,225.22,128.06,111.54
398.96,225.24,128.99,112.34
396.8,225.02,130.02,113.25
393.28,224.74,131.04,114.13
389.83,224.77,131.97,114.94
384.52,225.69,132.57,115.46
381.53,225.81,133.27,116.07
380.26,227.54,133.94,116.66
377.81,228.39,133.75,116.49
377.7,230.42,132.72,115.6
377.26,233.66,131.68,114.69
377.57,236.39,130.77,113.89
377.22,236.5,129.98,113.21
376.24,237.28,129.21,112.54
376.22,236.53,128.69,112.08
377.88,236.5,128.36,111.8
379.38,237.64,128.47,111.89
379.81,239.52,128.52,111.94
380.48,240.9,128.43,111.86
381.81,244.07,128.37,111.81
383.05,245.94,128.85,112.22
383.96,246.01,129.74,113
385.51,245.49,130.11,113.32
385.72,246.02,129.57,112.85
385.85,246.09,128.87,112.24
386.28,246.44,128.57,111.98
385.94,245.92,128.46,111.88
384.72,245.72,128.56,111.97
383.1,245.06,129.06,112.41
380.27,245.18,130.34,113.52
378.11,243.63,131.3,114.36
